wavenumber (/cm),baseline value (/cm),baseline-subtracted absorbance (/cm),
3.290019000000000233e+03,3.427753960857380378e-01,3.552713678800500929e-15
3.291947000000000116e+03,3.425868313292284029e-01,3.920158419141728245e-03
3.293875000000000000e+03,3.423865070737264205e-01,4.284508769703876396e-03
3.295804000000000087e+03,3.421743102660315117e-01,2.908634747949889743e-03
3.297731999999999971e+03,3.419504609132140160e-01,3.160443094243348128e-03
3.299660999999999603e+03,3.417147268063907006e-01,2.941377573852932414e-03
3.301589000000000397e+03,3.414673523562576918e-01,7.068528352037972695e-03
3.303518000000000029e+03,3.412080809503024170e-01,9.246718676911847012e-03
3.305447000000000116e+03,3.409370378435454541e-01,8.701359174163592058e-03
3.307375000000000000e+03,3.406543726977737663e-01,6.313008476504400335e-03
3.309302999999999884e+03,3.403599480530061783e-01,8.258877669268471777e-03
3.311231999999999971e+03,3.400536020487976430e-01,1.341983690740100599e-02
3.313159999999999854e+03,3.397356523067109890e-01,1.802203641649580135e-02
3.315089000000000397e+03,3.394057690033740471e-01,1.799404460333686728e-02
3.317017000000000280e+03,3.390642941639754326e-01,2.247158654432013236e-02
3.318945999999999913e+03,3.387108735615065314e-01,2.769266791100122305e-02
3.320875000000000000e+03,3.383456812582252837e-01,3.231135508846794124e-02
3.322802999999999884e+03,3.379689157231915431e-01,3.958560431408741920e-02
3.324730999999999767e+03,3.375803906891619022e-01,4.598624491195746344e-02
3.326659999999999854e+03,3.371798954884361876e-01,4.941376713971035173e-02
3.328587999999999738e+03,3.367678453570910335e-01,5.548285361774674129e-02
3.330517000000000280e+03,3.363438128572333596e-01,5.839337260409127595e-02
3.332445000000000164e+03,3.359082376285691396e-01,4.765467010675283888e-02
3.334374000000000251e+03,3.354606678295795064e-01,3.965303207722481460e-02
3.336302000000000135e+03,3.350015675036033258e-01,4.701707182538150676e-02
3.338230999999999767e+03,3.345304604054852859e-01,5.138659458053673745e-02
3.340159000000000106e+03,3.340478349821935922e-01,4.901647070280201746e-02
3.342087999999999738e+03,3.335531905849471457e-01,4.530701444767260000e-02
3.344015999999999622e+03,3.330470400643399387e-01,4.580011743799072832e-02
3.345945000000000164e+03,3.325288583679615328e-01,5.240683594704353965e-02
3.347873000000000047e+03,3.319991827500388126e-01,6.125058425834950526e-02
3.349802000000000135e+03,3.314574637545320002e-01,6.619211686056658550e-02
3.351730000000000018e+03,3.309042630392902140e-01,7.842285718438279929e-02
3.353659000000000106e+03,3.303390067446549949e-01,9.434785252841226821e-02
3.355586999999999989e+03,3.297622809321012483e-01,1.060923323018228004e-01
3.357515999999999622e+03,3.291734873383340698e-01,1.116988332581252408e-01
3.359444000000000415e+03,3.285732364284612572e-01,1.135180962835615759e-01
3.361373000000000047e+03,3.279609055355692249e-01,1.063475753591198725e-01
3.363302000000000135e+03,3.273368029418648462e-01,9.521771709541493323e-02
3.365230000000000018e+03,3.267012613363569073e-01,7.896043484258186140e-02
3.367157999999999902e+03,3.260539602318530683e-01,6.145675738231393126e-02
3.369086999999999989e+03,3.253945547406971173e-01,3.925688980729979960e-02
3.371014999999999873e+03,3.247237285388813177e-01,2.286247835767163394e-02
3.372944000000000415e+03,3.240407857485969600e-01,1.245595236883190182e-02
3.374872000000000298e+03,3.233464344494620946e-01,4.809203947556461856e-03
3.376800999999999931e+03,3.226399543600457775e-01,-4.680028917361411800e-03
3.378729000000000269e+03,3.219220779635989516e-01,-1.300875084337427268e-02
3.380657999999999902e+03,3.211920605750542279e-01,-2.122467940077576998e-02
3.382585999999999785e+03,3.204506590812918887e-01,-2.479921453329403391e-02
3.384514999999999873e+03,3.196971043936152057e-01,-2.932431781393152193e-02
3.386442999999999756e+03,3.189321778025338006e-01,-3.143730361800312068e-02
3.388372000000000298e+03,3.181550858157322637e-01,-3.450457323418376632e-02
3.390300000000000182e+03,3.173666341273353453e-01,-3.187362387570313871e-02
3.392229000000000269e+03,3.165660048414018490e-01,-3.213916420766427251e-02
3.394157000000000153e+03,3.157540280556894174e-01,-3.647537008737611330e-02
3.396085999999999785e+03,3.149298614706275146e-01,-3.933526687603183802e-02
3.398014000000000124e+03,3.140943595875995697e-01,-3.527516107874451023e-02
3.399942999999999756e+03,3.132466557034092602e-01,-3.617116642102224944e-02
3.401870999999999640e+03,3.123876287230622495e-01,-3.602882164011678157e-02
3.403800000000000182e+03,3.115163875397399806e-01,-3.596373143535913641e-02
3.405728000000000065e+03,3.106338354620845621e-01,-3.406906379386320793e-02
3.407657000000000153e+03,3.097390569796338866e-01,-2.834949500386407806e-02
3.409585000000000036e+03,3.088329798046594021e-01,-2.788423795936534333e-02
3.411514000000000124e+03,3.079146640230732146e-01,-3.640021854310937499e-02
3.413442000000000007e+03,3.069850617507832169e-01,-3.199344944882476227e-02
3.415370999999999640e+03,3.060432086700757282e-01,-2.800499804565692585e-02
3.417299000000000433e+03,3.050900813004666645e-01,-2.970145129114598603e-02
3.419228000000000065e+03,3.041246909206307691e-01,-2.821975149844924147e-02
3.421155999999999949e+03,3.031480384537061923e-01,-2.042949232136592741e-02
3.423085000000000036e+03,3.021591107747347849e-01,-2.025323938610412711e-02
3.425012999999999920e+03,3.011589332104982475e-01,-1.748605343416986813e-02
3.426942000000000007e+03,3.001464682323984334e-01,-1.590415695560309928e-02
3.428869999999999891e+03,2.991227655708428301e-01,-1.526069660532414218e-02
3.430799000000000433e+03,2.980867632936146094e-01,-1.671024884813387956e-02
3.432727000000000317e+03,2.970395355347470456e-01,-1.457262034369311010e-02
3.434655999999999949e+03,2.959799959583868656e-01,-1.496415252874960800e-02
3.436584000000000287e+03,2.949092431022037886e-01,-8.165533875735597746e-03
3.438512999999999920e+03,2.938261662267116492e-01,-1.011627550103533224e-03
3.440440999999999804e+03,2.927318882732130589e-01,2.513363307015126225e-04
3.442369999999999891e+03,2.916252740985960656e-01,9.842319591868431417e-04
3.444297999999999774e+03,2.905074710477819622e-01,1.623004255107751703e-03
3.446227000000000317e+03,2.893773195740330095e-01,-2.999663587477385818e-04
3.448155000000000200e+03,2.882359914258962874e-01,1.307994520038668895e-02
3.450084000000000287e+03,2.870823026530224809e-01,1.849365261258917315e-02
3.452012000000000171e+03,2.859174494075737982e-01,1.680575655701321836e-02
3.453940999999999804e+03,2.847402233355680323e-01,1.654029856564509515e-02
3.455869000000000142e+03,2.835518449928038365e-01,2.229624447597622350e-02
3.457797999999999774e+03,2.823510816216661112e-01,2.704407215279935883e-02
3.459725999999999658e+03,2.811391781815899549e-01,3.037526729837392026e-02
3.461655000000000200e+03,2.799148775113202703e-01,3.635166489315455607e-02
3.463583000000000084e+03,2.786794489739286007e-01,4.479398998226979955e-02
3.465512000000000171e+03,2.774316110045305095e-01,5.050221937757637392e-02
3.467440000000000055e+03,2.761726573698197740e-01,6.090749174481313588e-02
3.469369000000000142e+03,2.749012821012932761e-01,6.489927707857745531e-02
3.471297000000000025e+03,2.736188033692705801e-01,6.911372225980727535e-02
3.473225999999999658e+03,2.723238908016121229e-01,8.047014461311352562e-02
3.475154000000000451e+03,2.710178869722739137e-01,9.146114378261938072e-02
3.477083000000000084e+03,2.696994371054870498e-01,1.047963690454922769e-01
3.479010999999999967e+03,2.683699081788297747e-01,1.157614990905093677e-01
3.480940000000000055e+03,2.670279210129145042e-01,1.137101964148596878e-01
3.482867999999999938e+03,2.656748669889417158e-01,1.213810509980115526e-01
3.484797000000000025e+03,2.643093425238944860e-01,1.317689426578407819e-01
3.486724999999999909e+03,2.629327634026061844e-01,1.308100138574133098e-01
3.488654000000000451e+03,2.615437016384341007e-01,1.314246115022941197e-01
3.490582000000000335e+03,2.601435974198302858e-01,1.396578937264898457e-01
3.492510999999999967e+03,2.587309983565262428e-01,1.433230556975289005e-01
3.494439000000000306e+03,2.573073690406033620e-01,1.446395088717924438e-01
3.496367999999999938e+03,2.558712326781709123e-01,1.490756452342250071e-01
3.498295999999999822e+03,2.544240782649360710e-01,1.568676272336668731e-01
3.500224999999999909e+03,2.529644046033752147e-01,1.557084751729531646e-01
3.502152999999999793e+03,2.514937250928213075e-01,1.608846532855583433e-01
3.504082000000000335e+03,2.500105141321284918e-01,1.740519276199696819e-01
3.506010000000000218e+03,2.485163095242626241e-01,1.803821061327743891e-01
3.507939000000000306e+03,2.470095612644414018e-01,1.859522281111418707e-01
3.509867000000000189e+03,2.454918315592564682e-01,2.037290444892070340e-01
3.511795999999999822e+03,2.439615460003032865e-01,2.193124521357647794e-01
3.513724000000000160e+03,2.424202911978063923e-01,2.393737442169197038e-01
3.515652999999999793e+03,2.408664683397248041e-01,2.636106984822710331e-01
3.517580999999999676e+03,2.393016884399123967e-01,2.897160189226228866e-01
3.519510000000000218e+03,2.377243282826988491e-01,3.088031647275535363e-01
3.521438000000000102e+03,2.361360232855673758e-01,3.214492516445357495e-01
3.523367000000000189e+03,2.345351258292289742e-01,3.332579776190485177e-01
3.525295000000000073e+03,2.329232957347819877e-01,3.369210658682009196e-01
3.527224000000000160e+03,2.312988609793116268e-01,3.259686133916117612e-01
3.529152000000000044e+03,2.296635057875491270e-01,3.179021978471210375e-01
3.531080999999999676e+03,2.280155337329503595e-01,3.086256591841056718e-01
3.533009000000000015e+03,2.263566534438723465e-01,2.988604947387942801e-01
3.534938000000000102e+03,2.246851440901451724e-01,2.925813983143292774e-01
3.536865999999999985e+03,2.230027387037516462e-01,2.951314644649354335e-01
3.538795000000000073e+03,2.213076920508889600e-01,2.998731094402584674e-01
3.540722999999999956e+03,2.196017615671799206e-01,3.095809038568653193e-01
3.542652000000000044e+03,2.178831776151923805e-01,3.107020973149108301e-01
3.544579999999999927e+03,2.161537220341713805e-01,3.090028483292961425e-01
3.546509000000000015e+03,2.144116007830483284e-01,3.043460879401580499e-01
3.548436999999999898e+03,2.126586201047082625e-01,2.926452009577342750e-01
3.550365999999999985e+03,2.108929615544603564e-01,2.752198063858948274e-01
3.552294000000000324e+03,2.091164557788047773e-01,2.778192385362014960e-01
3.554222999999999956e+03,2.073272599294284646e-01,2.936755359699194656e-01
3.556150999999999840e+03,2.055272290564573723e-01,3.190981204309624175e-01
3.558079999999999927e+03,2.037144959079491002e-01,3.477738545114368307e-01
3.560007999999999811e+03,2.018909399376624947e-01,3.870139994845187559e-01
3.561936999999999898e+03,2.000546694900258160e-01,4.135539046013079201e-01
3.563864999999999782e+03,1.982075884224201445e-01,4.104876585486900709e-01
3.565794000000000324e+03,1.963477806756515065e-01,3.946363758947128986e-01
3.567722000000000207e+03,1.944771745107338745e-01,4.353317723671796813e-01
3.569650999999999840e+03,1.925938294648403826e-01,4.941452199293818737e-01
3.571579000000000178e+03,1.906996982026072374e-01,5.273189411263778936e-01
3.573507999999999811e+03,1.887928158575782334e-01,5.174951617752281408e-01
3.575435999999999694e+03,1.868751594980295749e-01,4.456989318346833429e-01
3.577364999999999782e+03,1.849447398538757170e-01,3.495808892234784082e-01
3.579292999999999665e+03,1.830035583970079927e-01,2.659908498042975467e-01
3.581222000000000207e+03,1.810496014537221754e-01,1.938888887606315947e-01
3.583150000000000091e+03,1.790848948995389378e-01,1.390931106922606020e-01
3.585079000000000178e+03,1.771074006571247139e-01,8.893733373243772888e-02
3.587007000000000062e+03,1.751191690056295158e-01,4.982211710807149530e-02
3.588935999999999694e+03,1.731181374640868853e-01,5.942240307645452191e-02
3.590864000000000033e+03,1.711063807152726213e-01,5.465783177307859120e-02
3.592792999999999665e+03,1.690818118745980314e-01,4.270663174143241037e-02
3.594720999999999549e+03,1.670465300284682542e-01,5.340826959874611646e-02
3.596650000000000091e+03,1.649984238886652577e-01,6.269868701534253574e-02
3.598577999999999975e+03,1.629396169452235199e-01,5.481993571088139561e-02
3.600507000000000062e+03,1.608679735062850114e-01,5.205001344618498393e-02
3.602434999999999945e+03,1.587856414655277604e-01,5.265983849719457766e-02
3.604364000000000033e+03,1.566904607274643979e-01,4.213898941233207296e-02
3.606291999999999916e+03,1.545846035893880810e-01,2.711157534817143500e-02
3.608220999999999549e+03,1.524658855521963119e-01,2.123402125115969596e-02
3.610149000000000342e+03,1.503365033168044818e-01,2.200273247070860805e-02
3.612077999999999975e+03,1.481942479804807533e-01,3.997737108057286548e-03
3.614005999999999858e+03,1.460413406477769627e-01,4.973570815411498813e-03
3.615934999999999945e+03,1.438755480123248276e-01,-5.020934778400487630e-03
3.617862999999999829e+03,1.416991155822984183e-01,-1.930209787493541995e-02
