wavenumber (/cm),baseline value (/cm),baseline-subtracted absorbance (/cm),
3.290019000000000233e+03,1.000242311276782203e-01,8.881784197001252323e-16
3.291947000000000116e+03,9.912454815233928684e-02,1.289222724374639029e-02
3.293875000000000000e+03,9.823028266177225021e-02,2.008751789740781390e-02
3.295804000000000087e+03,9.734097504090399866e-02,2.304485906906794668e-02
3.297731999999999971e+03,9.645754732978062407e-02,1.146416748848544387e-02
3.299660999999999603e+03,9.557908310961238385e-02,7.124551559539504808e-03
3.301589000000000397e+03,9.470649317793089494e-02,-3.833240615023214559e-03
3.303518000000000029e+03,9.383887235845911334e-02,-7.089571333295019429e-03
3.305447000000000116e+03,9.297667464501735424e-02,1.778380997753625792e-02
3.307375000000000000e+03,9.212034278744951621e-02,1.662150250611915681e-02
3.309302999999999884e+03,9.126942841465535139e-02,2.065787820230724492e-02
3.311231999999999971e+03,9.042349439658003973e-02,3.216550839931997530e-02
3.313159999999999854e+03,8.958341780322953696e-02,2.793568750897978958e-02
3.315089000000000397e+03,8.874832718585246027e-02,9.052231994016501915e-03
3.317017000000000280e+03,8.791908837194561954e-02,-1.177370160586921344e-02
3.318945999999999913e+03,8.709484115526677783e-02,1.104774971146316176e-02
3.320875000000000000e+03,8.627601704461618226e-02,2.815455145491796429e-02
3.322802999999999884e+03,8.546303630482121605e-02,2.520331970636213725e-02
3.324730999999999767e+03,8.465547304979992305e-02,1.353464810583915323e-02
3.326659999999999854e+03,8.385291263451755128e-02,1.214242753323624413e-02
3.328587999999999738e+03,8.305618715893992032e-02,1.971734499390276341e-02
3.330517000000000280e+03,8.226447014435578353e-02,1.397970506533585677e-02
3.332445000000000164e+03,8.147858244822003826e-02,1.482896648001919004e-02
3.334374000000000251e+03,8.069770883433413644e-02,1.682419237722232452e-02
3.336302000000000135e+03,7.992265891764027685e-02,1.347622272262150034e-02
3.338230999999999767e+03,7.915262870445438637e-02,5.162375955378273318e-03
3.340159000000000106e+03,7.838841656720418882e-02,-6.819859987050591599e-04
3.342087999999999738e+03,7.762922975471475695e-02,2.232603585572423555e-02
3.344015999999999622e+03,7.687585539690999781e-02,3.288462922564328039e-02
3.345945000000000164e+03,7.612751198511702455e-02,2.189019537741732080e-02
3.347873000000000047e+03,7.538497540675415109e-02,3.233850315520925278e-03
3.349802000000000135e+03,7.464747539565941281e-02,-4.889786672453766414e-03
3.351730000000000018e+03,7.391577659674020140e-02,1.885775555610180731e-02
3.353659000000000106e+03,7.318911998634547444e-02,4.596185857842716160e-02
3.355586999999999989e+03,7.246825896686814872e-02,5.415149872185498481e-02
3.357515999999999622e+03,7.175244575717165674e-02,6.764829981598730058e-02
3.359444000000000415e+03,7.104242251713799305e-02,6.129122147167809231e-02
3.361373000000000047e+03,7.033745270813795969e-02,5.067000302345459062e-02
3.363302000000000135e+03,6.963790600516617246e-02,3.084671654842185973e-02
3.365230000000000018e+03,6.894414083924793601e-02,7.651385721796799544e-03
3.367157999999999902e+03,6.825579315810159642e-02,-2.707046212879760105e-04
3.369086999999999989e+03,6.757251015049803300e-02,1.925159933377607047e-03
3.371014999999999873e+03,6.689500024879357909e-02,-3.284562224562748156e-03
3.372944000000000415e+03,6.622256064188825064e-02,8.380171773092470744e-04
3.374872000000000298e+03,6.555588851962745878e-02,2.441988035269382351e-02
3.376800999999999931e+03,6.489429231342036530e-02,3.867234328769875162e-02
3.378729000000000269e+03,6.423845797060323548e-02,3.285660260721545711e-02
3.380657999999999902e+03,6.358770516509437698e-02,2.500409353015253799e-02
3.382585999999999785e+03,6.294270860171913284e-02,3.327561668552192486e-03
3.384514999999999873e+03,6.230279919691028567e-02,1.024612904167288008e-02
3.386442999999999756e+03,6.166864041297692722e-02,2.266686750873869727e-02
3.388372000000000298e+03,6.103957440886453867e-02,2.802659520902928136e-02
3.390300000000000182e+03,6.041625340437661862e-02,1.791273075219468325e-02
3.392229000000000269e+03,5.979803080096246504e-02,1.966515652429379202e-02
3.394157000000000153e+03,5.918554757591820703e-02,3.318723900376419067e-02
3.396085999999999785e+03,5.857816837320051206e-02,3.367159863518676133e-02
3.398014000000000124e+03,5.797652292759991610e-02,1.988834193726507493e-02
3.399942999999999756e+03,5.737998712558045611e-02,1.171600541868844658e-02
3.401870999999999640e+03,5.678917945942174583e-02,5.630205442721525344e-03
3.403800000000000182e+03,5.620348705810229717e-02,8.752710518785455918e-03
3.405728000000000065e+03,5.562351717138724894e-02,9.032587208854359062e-03
3.407657000000000153e+03,5.504866817076425889e-02,3.147323304079208128e-02
3.409585000000000036e+03,5.447953606349287270e-02,6.441421976129824145e-02
3.411514000000000124e+03,5.391553046356811763e-02,5.899779665665505490e-02
3.413442000000000007e+03,5.335723613573861712e-02,3.136037803015234715e-02
3.415370999999999640e+03,5.280407393651209702e-02,2.556964460961985708e-02
3.417299000000000433e+03,5.225661738812625856e-02,3.154766965754074448e-02
3.419228000000000065e+03,5.171429858959797343e-02,4.153546841879141027e-02
3.421155999999999949e+03,5.117767982065579702e-02,4.378038168913001016e-02
3.423085000000000036e+03,5.064620442282397050e-02,2.387010499003583419e-02
3.425012999999999920e+03,5.012042343332545613e-02,8.506856067489465545e-04
3.426942000000000007e+03,4.959979143619364095e-02,1.164438377349785725e-02
3.428869999999999891e+03,4.908484822613701226e-02,3.203817134515940523e-02
3.430799000000000433e+03,4.857505962970343205e-02,4.504097019322284012e-02
3.432727000000000317e+03,4.807095419909046541e-02,3.138198149522430924e-02
3.434655999999999949e+03,4.757200900335512017e-02,3.511764616905832526e-02
3.436584000000000287e+03,4.707874135218581557e-02,4.203961838686431918e-02
3.438512999999999920e+03,4.659063955714692895e-02,2.458177423595753197e-02
3.440440999999999804e+03,4.610820968542128639e-02,1.098704636941505441e-04
3.442369999999999891e+03,4.563095129108063475e-02,-2.034492763588247044e-03
3.444297999999999774e+03,4.515935919879687788e-02,7.898422721053677265e-03
3.446227000000000317e+03,4.469294420515623756e-02,2.150649661497450182e-02
3.448155000000000200e+03,4.423218989231614273e-02,3.715737208345171183e-02
3.450084000000000287e+03,4.377661829937196103e-02,5.450110770249150249e-02
3.452012000000000171e+03,4.332670176597552825e-02,4.429398788919769459e-02
3.453940999999999804e+03,4.288197357372958152e-02,4.878811030325103104e-02
3.455869000000000142e+03,4.244289481977325806e-02,7.444060937407570577e-02
3.457797999999999774e+03,4.200901002822732266e-02,6.392016052163373985e-02
3.459725999999999658e+03,4.158076905371643761e-02,6.440338751664764771e-02
3.461655000000000200e+03,4.115772766286696083e-02,7.627377280311620211e-02
3.463583000000000084e+03,4.074032446779973782e-02,4.949453107740175994e-02
3.465512000000000171e+03,4.032812647764671965e-02,5.104000026979171878e-02
3.467440000000000055e+03,3.992156106202315868e-02,6.628253959035390608e-02
3.469369000000000142e+03,3.952020647257015185e-02,1.028069137511025133e-01
3.471297000000000025e+03,3.912447883638847657e-02,1.210768259166394856e-01
3.473225999999999658e+03,3.873396764763370470e-02,1.127077844492907488e-01
3.475154000000000451e+03,3.834907779089569146e-02,8.996033507024137066e-02
3.477083000000000084e+03,3.796941000283915457e-02,9.271372140443112642e-02
3.479010999999999967e+03,3.759535792554302702e-02,1.133999822422113724e-01
3.480940000000000055e+03,3.722653353818472510e-02,1.323997479156835411e-01
3.482867999999999938e+03,3.686331924033225960e-02,1.263016388211770646e-01
3.484797000000000025e+03,3.650533825367219265e-02,1.278357614667378073e-01
3.486724999999999909e+03,3.615296173526338919e-02,1.237594334185114775e-01
3.488654000000000451e+03,3.580582414930155721e-02,1.362258627099706132e-01
3.490582000000000335e+03,3.546428541033463944e-02,1.641526763790421839e-01
3.492510999999999967e+03,3.512799122507104244e-02,1.579223349631870832e-01
3.494439000000000306e+03,3.479729026554778670e-02,1.504422251118997522e-01
3.496367999999999938e+03,3.447183948098064832e-02,1.529531372198587036e-01
3.498295999999999822e+03,3.415197630090283099e-02,1.501481168957417012e-01
3.500224999999999909e+03,3.383736891703392757e-02,1.589799656589221399e-01
3.502152999999999793e+03,3.352834351639621957e-02,1.509562790371914431e-01
3.504082000000000335e+03,3.322457953322555113e-02,1.467222983791707236e-01
3.506010000000000218e+03,3.292639191203328153e-02,1.699720237450028648e-01
3.507939000000000306e+03,3.263347132956084806e-02,1.925333506648474469e-01
3.509867000000000189e+03,3.234612148781224050e-02,1.809250807489064528e-01
3.511795999999999822e+03,3.206404430603626565e-02,1.743814356566852908e-01
3.513724000000000160e+03,3.178753224373132014e-02,1.984706224626986426e-01
3.515652999999999793e+03,3.151629846265358026e-02,2.355573268868340620e-01
3.517580999999999676e+03,3.125062417979229679e-02,2.716850701352120367e-01
3.519510000000000218e+03,3.099023379941279188e-02,2.871523570673168990e-01
3.521438000000000102e+03,3.073539729599339410e-02,2.795339410078279130e-01
3.523367000000000189e+03,3.048585031631390052e-02,2.886846995438911989e-01
3.525295000000000073e+03,3.024185159233638842e-02,3.064040011569648669e-01
3.527224000000000160e+03,3.000314801335512982e-02,3.136240654069615275e-01
3.529152000000000044e+03,2.976998706882127976e-02,3.003399849721866133e-01
3.531080999999999676e+03,2.954212689053647978e-02,2.812239495307125026e-01
3.533009000000000015e+03,2.931980372544629176e-02,2.566923118383934721e-01
3.534938000000000102e+03,2.910278694785972675e-02,2.399475392403971341e-01
3.536865999999999985e+03,2.889130156221320078e-02,2.212876359960347372e-01
3.538795000000000073e+03,2.868512818532487074e-02,2.202533620290267891e-01
3.540722999999999956e+03,2.848448057912023046e-02,2.203048950033581477e-01
3.542652000000000044e+03,2.828915060293013539e-02,2.323417906831837243e-01
3.544579999999999927e+03,2.809934077616915715e-02,2.387217216655823648e-01
3.546509000000000015e+03,2.791485420067729706e-02,2.156676248300781751e-01
3.548436999999999898e+03,2.773588215335998086e-02,2.120124869053547911e-01
3.550365999999999985e+03,2.756223897856635574e-02,2.119186557092254120e-01
3.552294000000000324e+03,2.739410471069270159e-02,1.899945252986272592e-01
3.554222999999999956e+03,2.723130493659553508e-02,1.933716773560432145e-01
3.556150999999999840e+03,2.707400844816376662e-02,2.243873149441943937e-01
3.558079999999999927e+03,2.692205207476661144e-02,2.572820485776095012e-01
3.560007999999999811e+03,2.677559336577850502e-02,2.901312099893003094e-01
3.561936999999999898e+03,2.663448039307958481e-02,3.194671039498846454e-01
3.563864999999999782e+03,2.649885946353514043e-02,3.553632095019825243e-01
3.565794000000000324e+03,2.636858989153267885e-02,3.885521929602848701e-01
3.567722000000000207e+03,2.624380674143189651e-02,4.296191941905336265e-01
3.569650999999999840e+03,2.612438057012766990e-02,4.691701208278216129e-01
3.571579000000000178e+03,2.601043519946877325e-02,5.033623513802147897e-01
3.573507999999999811e+03,2.590185242886455796e-02,5.100580730138188912e-01
3.575435999999999694e+03,2.579874483764932336e-02,4.345134639228360740e-01
3.577364999999999782e+03,2.570100546774156669e-02,3.302542601426958768e-01
3.579292999999999665e+03,2.560873565596999413e-02,2.555534265061929489e-01
3.581222000000000207e+03,2.552183968675869608e-02,2.128425591948817086e-01
3.583150000000000091e+03,2.544040765442900920e-02,1.839389026903983648e-01
3.585079000000000178e+03,2.536435508591772248e-02,1.412451509718639642e-01
3.587007000000000062e+03,2.529376083303347400e-02,1.118283267718132024e-01
3.588935999999999694e+03,2.522855166521864589e-02,8.845364777560149605e-02
3.590864000000000033e+03,2.516879519177628310e-02,7.023381431428266097e-02
3.592792999999999665e+03,2.511442942466146633e-02,7.100859014663374325e-02
3.594720999999999549e+03,2.506551073066276558e-02,6.510317519664265973e-02
3.596650000000000091e+03,2.502198836424618378e-02,6.499385506539034907e-02
3.598577999999999975e+03,2.498390744968936872e-02,6.873184278330324304e-02
3.600507000000000062e+03,2.495122848397102189e-02,6.850170721034398724e-02
3.602434999999999945e+03,2.492398534885786887e-02,3.798840980491657859e-02
3.604364000000000033e+03,2.490214978383598066e-02,2.970269644169931667e-02
3.606291999999999916e+03,2.488574442816648968e-02,5.911705147117984893e-02
3.608220999999999549e+03,2.487475226384283644e-02,5.555208836989411481e-02
3.610149000000000342e+03,2.486918468761523116e-02,2.078625191228589131e-03
3.612077999999999975e+03,2.486903592399158924e-02,-2.486903592399158924e-02
3.614005999999999858e+03,2.487430612720942236e-02,-1.463945058200888383e-02
3.615934999999999945e+03,2.488500076428223906e-02,3.092301414718079400e-02
3.617862999999999829e+03,2.490110874694195786e-02,3.515294530711265963e-02
