wavenumber (/cm),baseline value (/cm),baseline-subtracted absorbance (/cm),
3.290019000000000233e+03,1.875293569431448759e-01,4.440892098500626162e-15
3.291947000000000116e+03,1.859076846769021074e-01,1.056389034639604318e-02
3.293875000000000000e+03,1.842972994930462960e-01,1.792637245476225161e-02
3.295804000000000087e+03,1.826973749125180291e-01,2.479749927200991522e-02
3.297731999999999971e+03,1.811095697477362876e-01,1.481494096987567843e-02
3.299660999999999603e+03,1.795322368979128669e-01,8.734305506559181254e-03
3.301589000000000397e+03,1.779670117521980899e-01,-5.513144091434440952e-03
3.303518000000000029e+03,1.764122706330724100e-01,-7.826063736521504666e-03
3.305447000000000116e+03,1.748688283079644634e-01,2.014235528942531772e-02
3.307375000000000000e+03,1.733374761180144219e-01,2.225245864433311738e-02
3.309302999999999884e+03,1.718174110104513375e-01,2.737830194388113370e-02
3.311231999999999971e+03,1.703078533527246918e-01,4.124946258390060905e-02
3.313159999999999854e+03,1.688103682642356773e-01,3.877397469941712416e-02
3.315089000000000397e+03,1.673234023372138779e-01,2.069803289111593614e-02
3.317017000000000280e+03,1.658484972677953806e-01,-9.459867258476251095e-03
3.318945999999999913e+03,1.643841230714748747e-01,1.131764766477783013e-02
3.320875000000000000e+03,1.629310476691685494e-01,3.084155251722364710e-02
3.322802999999999884e+03,1.614900155555076822e-01,2.503374958894610813e-02
3.324730999999999767e+03,1.600602705242373247e-01,1.790897458293816413e-02
3.326659999999999854e+03,1.586410797893158531e-01,2.339340296930370044e-02
3.328587999999999738e+03,1.572339147771195655e-01,3.122740861523709555e-02
3.330517000000000280e+03,1.558373157728993874e-01,1.352055934359519540e-02
3.332445000000000164e+03,1.544527307797736171e-01,1.080542392665506668e-02
3.334374000000000251e+03,1.530787235062582852e-01,1.997999038004127925e-02
3.336302000000000135e+03,1.517167185322065848e-01,1.820686021895756568e-02
3.338230999999999767e+03,1.503653029893889936e-01,6.577847057208430215e-03
3.340159000000000106e+03,1.490258780344113632e-01,3.373935572297703800e-03
3.342087999999999738e+03,1.476970542222950655e-01,3.333370067052765506e-02
3.344015999999999622e+03,1.463802092863915050e-01,4.371391932497736832e-02
3.345945000000000164e+03,1.450739772049729481e-01,2.838548225448533913e-02
3.347873000000000047e+03,1.437797122881399048e-01,8.261294235624383475e-03
3.349802000000000135e+03,1.424960719374297469e-01,2.489730767596398664e-05
3.351730000000000018e+03,1.412243870396707734e-01,2.499648900879147817e-02
3.353659000000000106e+03,1.399633384196548036e-01,5.606275664092130739e-02
3.355586999999999989e+03,1.387142335409699001e-01,6.379555210674592303e-02
3.357515999999999622e+03,1.374757766516623292e-01,7.754286267732091176e-02
3.359444000000000415e+03,1.362492517920443902e-01,7.443760748102068447e-02
3.361373000000000047e+03,1.350333866334381128e-01,6.641768512797696644e-02
3.363302000000000135e+03,1.338288202688460160e-01,3.835850498744353132e-02
3.365230000000000018e+03,1.326361683649892598e-01,1.749617087079702316e-02
3.367157999999999902e+03,1.314548035435194606e-01,1.314445088332050204e-02
3.369086999999999989e+03,1.302841218463122175e-01,1.055930779022062893e-02
3.371014999999999873e+03,1.291253370439164883e-01,2.704113095878035722e-03
3.372944000000000415e+03,1.279772470774105386e-01,7.801876874126811856e-03
3.374872000000000298e+03,1.268410422940888793e-01,2.840313291560292441e-02
3.376800999999999931e+03,1.257155440582842232e-01,3.980356125392336963e-02
3.378729000000000269e+03,1.246019192940330811e-01,3.530954389329199472e-02
3.380657999999999902e+03,1.234990127889297185e-01,3.098933763045419454e-02
3.382585999999999785e+03,1.224079680437526463e-01,1.108504220787676076e-02
3.384514999999999873e+03,1.213276532693505771e-01,1.869005409318358346e-02
3.386442999999999756e+03,1.202591885432475749e-01,3.623848154062869753e-02
3.388372000000000298e+03,1.192014654995467993e-01,4.406973673717207163e-02
3.390300000000000182e+03,1.181555807925178669e-01,3.287424213385659044e-02
3.392229000000000269e+03,1.171204494795148321e-01,3.372577605636450926e-02
3.394157000000000153e+03,1.160971447915599697e-01,4.769409472381713755e-02
3.396085999999999785e+03,1.150846052092582283e-01,4.855192787554951650e-02
3.398014000000000124e+03,1.140838805403738832e-01,3.712674387714542945e-02
3.399942999999999756e+03,1.130939326887769880e-01,2.673738138391534847e-02
3.401870999999999640e+03,1.121157880389667127e-01,1.616939369448999742e-02
3.403800000000000182e+03,1.111484319180675584e-01,1.654029128789602510e-02
3.405728000000000065e+03,1.101928672873313531e-01,1.143341416653598230e-02
3.407657000000000153e+03,1.092481028971334922e-01,3.467081602178456734e-02
3.409585000000000036e+03,1.083151182854713568e-01,7.300547817305513831e-02
3.411514000000000124e+03,1.073929456259783422e-01,6.929018578128864903e-02
3.413442000000000007e+03,1.064825410333831712e-01,3.955287369168658529e-02
3.415370999999999640e+03,1.055829601045914501e-01,3.413838192709484076e-02
3.417299000000000433e+03,1.046951355310739018e-01,3.351269298709880218e-02
3.419228000000000065e+03,1.038181463329799215e-01,3.938315842004769252e-02
3.421155999999999949e+03,1.029529017785328904e-01,4.600049989900600877e-02
3.423085000000000036e+03,1.020985043111437562e-01,2.999376036732748219e-02
3.425012999999999920e+03,1.012558397757672424e-01,8.633256216775464509e-03
3.426942000000000007e+03,1.004240340390794017e-01,1.801958199074338296e-02
3.428869999999999891e+03,9.960394952277695779e-02,2.935318002055797848e-02
3.430799000000000433e+03,9.879473551679041066e-02,3.864235674788751851e-02
3.432727000000000317e+03,9.799723101956203664e-02,2.340724241939184935e-02
3.434655999999999949e+03,9.721060874427323029e-02,2.735323095749642164e-02
3.436584000000000287e+03,9.643568426611892619e-02,3.503309485783212551e-02
3.438512999999999920e+03,9.567165372153141334e-02,1.831436678172870813e-02
3.440440999999999804e+03,9.491930926245117917e-02,1.710914831214438436e-04
3.442369999999999891e+03,9.417787044856495982e-02,5.088671955907564382e-03
3.444297999999999774e+03,9.344810600855879557e-02,9.667457831142201030e-03
3.446227000000000317e+03,9.272925892537386972e-02,2.094362085095369252e-02
3.448155000000000200e+03,9.202207450443822268e-02,3.212144832873864431e-02
3.450084000000000287e+03,9.132581915195459032e-02,4.269748000927453546e-02
3.452012000000000171e+03,9.064121475009301321e-02,3.633921395447359259e-02
3.453940999999999804e+03,8.996755112831422707e-02,4.604176853617669707e-02
3.455869000000000142e+03,8.930552674552316716e-02,6.869913308672170871e-02
3.457797999999999774e+03,8.865445485444212181e-02,5.035579677649870689e-02
3.459725999999999658e+03,8.801501049072513183e-02,5.319654589324418481e-02
3.461655000000000200e+03,8.738653033034537998e-02,7.801980704150857093e-02
3.463583000000000084e+03,8.676966598570245992e-02,5.308215134887195319e-02
3.465512000000000171e+03,8.616377755602400157e-02,4.813538367417091735e-02
3.467440000000000055e+03,8.556949323045515143e-02,5.573153193263813421e-02
3.469369000000000142e+03,8.498619653147798658e-02,8.992619862229567218e-02
3.471297000000000025e+03,8.441449222497965366e-02,1.114429169082908899e-01
3.473225999999999658e+03,8.385378725670022959e-02,1.044882444301578062e-01
3.475154000000000451e+03,8.330466296927951930e-02,8.261425594963700547e-02
3.477083000000000084e+03,8.276654973170138874e-02,8.780008586941612236e-02
3.479010999999999967e+03,8.224000546335119566e-02,1.071542163446626006e-01
3.480940000000000055e+03,8.172448395647791131e-02,1.243845561180787485e-01
3.482867999999999938e+03,8.122051970719823544e-02,1.218847925015609235e-01
3.484797000000000025e+03,8.072758993102624459e-02,1.247514408238652450e-01
3.486724999999999909e+03,8.024620570082063864e-02,1.175981559021597178e-01
3.488654000000000451e+03,7.977586765534994129e-02,1.292297241433448818e-01
3.490582000000000335e+03,7.931706344421485255e-02,1.625030670310865233e-01
3.492510999999999967e+03,7.886931712944544870e-02,1.581633016962760152e-01
3.494439000000000306e+03,7.843309293738442989e-02,1.508735240244041265e-01
3.496367999999999938e+03,7.800793835331631954e-02,1.479501231564688268e-01
3.498295999999999822e+03,7.759429418032937065e-02,1.415781196127721131e-01
3.500224999999999909e+03,7.719173132696255379e-02,1.539415398752730368e-01
3.502152999999999793e+03,7.680066717304967483e-02,1.452133123236878376e-01
3.504082000000000335e+03,7.642069605038059876e-02,1.364413729151356947e-01
3.506010000000000218e+03,7.605221191554178972e-02,1.631090182801706590e-01
3.507939000000000306e+03,7.569483252357400715e-02,1.941411413813636244e-01
3.509867000000000189e+03,7.534892840780926804e-02,1.895606708466166523e-01
3.511795999999999822e+03,7.501414074654277897e-02,1.789616281257773167e-01
3.513724000000000160e+03,7.469081664984855706e-02,1.905421749624522931e-01
3.515652999999999793e+03,7.437862071928691421e-02,2.302579123655217330e-01
3.517580999999999676e+03,7.407787664166320951e-02,2.690302314664441141e-01
3.519510000000000218e+03,7.378827244180286016e-02,2.884447191704984093e-01
3.521438000000000102e+03,7.351010838325322538e-02,2.841422681311911447e-01
3.523367000000000189e+03,7.324309591409061682e-02,2.905043411781731422e-01
3.525295000000000073e+03,7.298751187461505197e-02,3.073629075102859431e-01
3.527224000000000160e+03,7.274309113615728961e-02,3.147182322561992152e-01
3.529152000000000044e+03,7.251008711575224197e-02,2.978701551955236226e-01
3.531080999999999676e+03,7.228825810799222040e-02,2.786986943617177914e-01
3.533009000000000015e+03,7.207783410666479540e-02,2.538019422213864118e-01
3.534938000000000102e+03,7.187859682960606733e-02,2.396833789392651681e-01
3.536865999999999985e+03,7.169075284734915954e-02,2.224835248786520836e-01
3.538795000000000073e+03,7.151410730099172497e-02,2.224057435843755925e-01
3.540722999999999956e+03,7.134884333780888710e-02,2.215756673798043863e-01
3.542652000000000044e+03,7.119478952215274603e-02,2.334491992942488992e-01
3.544579999999999927e+03,7.105210557804397808e-02,2.390820975906411405e-01
3.546509000000000015e+03,7.092064349308913052e-02,2.150989278023436313e-01
3.548436999999999898e+03,7.080053956805087978e-02,2.148257418858161572e-01
3.550365999999999985e+03,7.069166921379732571e-02,2.195114994721292234e-01
3.552294000000000324e+03,7.059414530783314490e-02,1.990004492867605279e-01
3.554222999999999956e+03,7.050786668428088433e-02,2.000391976214030976e-01
3.556150999999999840e+03,7.043292279739077344e-02,2.237832934188244138e-01
3.558079999999999927e+03,7.036923590453980637e-02,2.512439980190377398e-01
3.560007999999999811e+03,7.031687203672021269e-02,2.883177971151900110e-01
3.561936999999999898e+03,7.027577687457053912e-02,3.203402529483545536e-01
3.563864999999999782e+03,7.024599302582501537e-02,3.601920312053019657e-01
3.565794000000000324e+03,7.022748959437663530e-02,3.894081115239824697e-01
3.567722000000000207e+03,7.022028576470518146e-02,4.174833489044456059e-01
3.569650999999999840e+03,7.022437406395454218e-02,4.620934264952234471e-01
3.571579000000000178e+03,7.023975025335715827e-02,4.960128126543770222e-01
3.573507999999999811e+03,7.026643028331136520e-02,4.932414914315055299e-01
3.575435999999999694e+03,7.030438649178449850e-02,4.157645790254553830e-01
3.577364999999999782e+03,7.035365825243644622e-02,3.171216446366589281e-01
3.579292999999999665e+03,7.041419447998364944e-02,2.459502044016552702e-01
3.581222000000000207e+03,7.048605797134044337e-02,2.034011740883041597e-01
3.583150000000000091e+03,7.056917421795816381e-02,1.763180578416863042e-01
3.585079000000000178e+03,7.066362944001625124e-02,1.367725308582103949e-01
3.587007000000000062e+03,7.076932570570804160e-02,9.966124279382526652e-02
3.588935999999999694e+03,7.088637265846742253e-02,8.135780255122426752e-02
3.590864000000000033e+03,7.101464894323328281e-02,6.818665580979477170e-02
3.592792999999999665e+03,7.115428762669040452e-02,6.229398823537746210e-02
3.594720999999999549e+03,7.130514393053033473e-02,5.294555504430409343e-02
3.596650000000000091e+03,7.146737434468874994e-02,6.160438707189896945e-02
3.598577999999999975e+03,7.164081066759919736e-02,7.217931980770320166e-02
3.600507000000000062e+03,7.182563281246245879e-02,7.256952096200119939e-02
3.602434999999999945e+03,7.202164915444697613e-02,3.968757731339955797e-02
3.604364000000000033e+03,7.222906303000797834e-02,3.020709726822090602e-02
3.606291999999999916e+03,7.244765939107011832e-02,5.947498739364487363e-02
3.608220999999999549e+03,7.267766499733241403e-02,5.566436668952601252e-02
3.610149000000000342e+03,7.291884137746151850e-02,-1.983147062457391030e-03
3.612077999999999975e+03,7.317143871442866043e-02,-3.146034831368371698e-02
3.614005999999999858e+03,7.343519511363183483e-02,-2.179679809592549589e-02
3.615934999999999945e+03,7.371038418129671754e-02,1.579194573482478603e-02
3.617862999999999829e+03,7.399672059957396186e-02,2.571064193537342391e-02
