wavenumber (/cm),baseline value (/cm),baseline-subtracted absorbance (/cm),
3.290019000000000233e+03,3.542819601174826971e-01,8.881784197001252323e-16
3.291947000000000116e+03,3.536654548789748276e-01,7.908204110049332769e-03
3.293875000000000000e+03,3.530421463668318438e-01,9.062506593439323410e-03
3.295804000000000087e+03,3.524117059943314700e-01,6.200135093935799091e-03
3.297731999999999971e+03,3.517747874062404634e-01,3.906152460817047256e-03
3.299660999999999603e+03,3.511307298986299230e-01,2.750086301711363035e-03
3.301589000000000397e+03,3.504802012345926698e-01,1.542522524875522549e-03
3.303518000000000029e+03,3.498225265918684102e-01,-8.010036253329744227e-03
3.305447000000000116e+03,3.491580416163380107e-01,-1.054001719216213218e-02
3.307375000000000000e+03,3.484870960740487078e-01,-9.722217422016399269e-03
3.309302999999999884e+03,3.478093472581242906e-01,2.049208932940693728e-03
3.311231999999999971e+03,3.471244383451725923e-01,6.912982447175863854e-04
3.313159999999999854e+03,3.464330794533019287e-01,-2.149622790863503496e-04
3.315089000000000397e+03,3.457345534052382874e-01,-5.884499301049395115e-03
3.317017000000000280e+03,3.450295844374213772e-01,-1.692477689375238015e-02
3.318945999999999913e+03,3.443174412542457929e-01,-8.284939671847624254e-04
3.320875000000000000e+03,3.435984877382605163e-01,1.284995869859173467e-02
3.322802999999999884e+03,3.428731018921933327e-01,8.699784179842851017e-03
3.324730999999999767e+03,3.421409127724874821e-01,8.662920895776693442e-03
3.326659999999999854e+03,3.414015353190826829e-01,1.325528953792698417e-02
3.328587999999999738e+03,3.406557361234323622e-01,5.067714178005111592e-03
3.330517000000000280e+03,3.399027415349156200e-01,1.498556965626285375e-03
3.332445000000000164e+03,3.391433322633190528e-01,7.666839324252272547e-03
3.334374000000000251e+03,3.383767205396903677e-01,1.865295947267675558e-02
3.336302000000000135e+03,3.376037011921493303e-01,1.957747055000602643e-02
3.338230999999999767e+03,3.368234723334051495e-01,8.541344485267998721e-03
3.340159000000000106e+03,3.360368429099196419e-01,-1.850883883545151321e-04
3.342087999999999738e+03,3.352429969160635181e-01,1.091328689905424199e-02
3.344015999999999622e+03,3.344427574166317640e-01,1.694076399316912784e-02
3.345945000000000164e+03,3.336352942876636973e-01,1.401581098363013922e-02
3.347873000000000047e+03,3.328214447122856967e-01,1.632757368313786372e-02
3.349802000000000135e+03,3.320003644482039107e-01,2.871226501539236864e-02
3.351730000000000018e+03,3.311729047968832162e-01,4.145501296474929376e-02
3.353659000000000106e+03,3.303382073976859346e-01,3.485502184949318405e-02
3.355586999999999989e+03,3.294971376704189936e-01,2.647982940331772284e-02
3.357515999999999622e+03,3.286488231361115453e-01,3.181415414012889187e-02
3.359444000000000415e+03,3.277941433329001342e-01,3.234807339302392393e-02
3.361373000000000047e+03,3.269322116634789666e-01,3.924957841226728306e-02
3.363302000000000135e+03,3.260634696612498828e-01,3.734277550801934353e-02
3.365230000000000018e+03,3.251883729797864220e-01,1.116964216938676202e-02
3.367157999999999902e+03,3.243064730246860705e-01,4.917956412580082315e-04
3.369086999999999989e+03,3.234173070850374643e-01,7.895105961801540673e-03
3.371014999999999873e+03,3.225217970539908663e-01,6.614854669613201565e-03
3.372944000000000415e+03,3.216190139792303171e-01,6.966547931420485895e-03
3.374872000000000298e+03,3.207098938722374726e-01,4.773179245709968654e-03
3.376800999999999931e+03,3.197934936623649804e-01,-3.769378652316746070e-03
3.378729000000000269e+03,3.188707634794258894e-01,-5.564522312795361358e-05
3.380657999999999902e+03,3.179407461344396779e-01,-2.446852178651148790e-03
3.382585999999999785e+03,3.170044058755578931e-01,-2.116965552774541237e-02
3.384514999999999873e+03,3.160607713954579623e-01,-2.233144692490629524e-02
3.386442999999999756e+03,3.151108210606299309e-01,-1.617049025215866465e-02
3.388372000000000298e+03,3.141535694454162808e-01,-2.357851920581222060e-02
3.390300000000000182e+03,3.131900090346437793e-01,-3.062933505102982679e-02
3.392229000000000269e+03,3.122191402843181862e-01,-3.267206963970537004e-02
3.394157000000000153e+03,3.112419697976012145e-01,-2.236888276714843471e-02
3.396085999999999785e+03,3.102574839121619021e-01,-1.427201475154937782e-02
3.398014000000000124e+03,3.092667033494986839e-01,-2.277806522923331300e-02
3.399942999999999756e+03,3.082686003289474286e-01,-3.545827415797830895e-02
3.401870999999999640e+03,3.072642096903379638e-01,-3.873197905190917112e-02
3.403800000000000182e+03,3.062524895346729892e-01,-2.938589500692501133e-02
3.405728000000000065e+03,3.052344888201208306e-01,-2.832924844293760458e-02
3.407657000000000153e+03,3.042091515293421367e-01,-3.955696417426413092e-02
3.409585000000000036e+03,3.031775407388437316e-01,-3.662629634249192634e-02
3.411514000000000124e+03,3.021385863129513183e-01,-3.397580999512861410e-02
3.413442000000000007e+03,3.010933654465102194e-01,-3.494017329934706595e-02
3.415370999999999640e+03,3.000407938855058632e-01,-2.987075214798817768e-02
3.417299000000000433e+03,2.989819629431167414e-01,-2.523718013279019345e-02
3.419228000000000065e+03,2.979157742469986658e-01,-1.878453294231441362e-02
3.421155999999999949e+03,2.968433332286650739e-01,-2.194237541542243264e-03
3.423085000000000036e+03,2.957635273974350554e-01,-5.720244046066191856e-03
3.425012999999999920e+03,2.946774763031569933e-01,-2.196531058975459416e-02
3.426942000000000007e+03,2.935840533368114791e-01,-3.030765822164749324e-02
3.428869999999999891e+03,2.924843921665889468e-01,-1.833460085417648600e-02
3.430799000000000433e+03,2.913773520651314897e-01,-8.528380044726446840e-03
3.432727000000000317e+03,2.902640808189627109e-01,-4.737724349647365329e-03
3.434655999999999949e+03,2.891434235823933108e-01,-9.638090455171166582e-03
3.436584000000000287e+03,2.880165422602800618e-01,1.891480618061436303e-03
3.438512999999999920e+03,2.868822678885969424e-01,1.648996893316834189e-02
3.440440999999999804e+03,2.857417764905392232e-01,2.614697608134264328e-04
3.442369999999999891e+03,2.845938849837423845e-01,-1.943466408406724355e-02
3.444297999999999774e+03,2.834397835097384188e-01,-5.845874095609993049e-03
3.446227000000000317e+03,2.822782748678278608e-01,-1.754237149478754532e-03
3.448155000000000200e+03,2.811105633178794250e-01,-1.522634628278929370e-02
3.450084000000000287e+03,2.799354375408569240e-01,-9.549751963487729256e-03
3.452012000000000171e+03,2.787541159149640180e-01,-9.325301569624855347e-03
3.453940999999999804e+03,2.775653730028277977e-01,-2.062303261018616496e-02
3.455869000000000142e+03,2.763704413009904215e-01,-8.704650606910391275e-03
3.457797999999999774e+03,2.751680812537404819e-01,9.294741439101805724e-03
3.459725999999999658e+03,2.739595394759568592e-01,1.162787743546633834e-02
3.461655000000000200e+03,2.727435622935949766e-01,1.768154205019900616e-02
3.463583000000000084e+03,2.715214104398651074e-01,3.294914142286309300e-02
3.465512000000000171e+03,2.702918161223912819e-01,3.777511848883108314e-02
3.467440000000000055e+03,2.690560541927169425e-01,4.040754141711389025e-02
3.469369000000000142e+03,2.678128427401276213e-01,4.688262796631903484e-02
3.471297000000000025e+03,2.665634707345105880e-01,5.704682451977927116e-02
3.473225999999999658e+03,2.653066421468075475e-01,5.608460843288032294e-02
3.475154000000000451e+03,2.640436600652424914e-01,5.276187402039678176e-02
3.477083000000000084e+03,2.627732143424292843e-01,5.912120519691210774e-02
3.479010999999999967e+03,2.614966221849197581e-01,7.114907266745262859e-02
3.480940000000000055e+03,2.602125593269928316e-01,8.219585000984430678e-02
3.482867999999999938e+03,2.589223570935388352e-01,9.120517420960005950e-02
3.484797000000000025e+03,2.576246771004981895e-01,9.117420989903823880e-02
3.486724999999999909e+03,2.563208647910997229e-01,1.045262522285321793e-01
3.488654000000000451e+03,2.550095676629435815e-01,1.175541979886256527e-01
3.490582000000000335e+03,2.536921452776006447e-01,1.129781283350137500e-01
3.492510999999999967e+03,2.523672310143343367e-01,1.157615369559863439e-01
3.494439000000000306e+03,2.510361985530433770e-01,1.249709122832527441e-01
3.496367999999999938e+03,2.496976671546651261e-01,1.250148077255328616e-01
3.498295999999999822e+03,2.483530246174296963e-01,1.355733936852443478e-01
3.500224999999999909e+03,2.470008760839359496e-01,1.369951047477222517e-01
3.502152999999999793e+03,2.456426234707578260e-01,1.312517960685841700e-01
3.504082000000000335e+03,2.442768578021503600e-01,1.389833060562510880e-01
3.506010000000000218e+03,2.429049951130259899e-01,1.528153635204558825e-01
3.507939000000000306e+03,2.415256123093065810e-01,1.606315990061988330e-01
3.509867000000000189e+03,2.401401395442377407e-01,1.695514665772641649e-01
3.511795999999999822e+03,2.387471396054063888e-01,1.933389633471360725e-01
3.513724000000000160e+03,2.373480567643895256e-01,2.029039141739312768e-01
3.515652999999999793e+03,2.359414396904444544e-01,2.208293131307028645e-01
3.517580999999999676e+03,2.345287467734848974e-01,2.546272278748382689e-01
3.519510000000000218e+03,2.331085125644261069e-01,2.685973152296687871e-01
3.521438000000000102e+03,2.316822095715203034e-01,2.726314401424998479e-01
3.523367000000000189e+03,2.302483582273495699e-01,2.879623389437737657e-01
3.525295000000000073e+03,2.288084451584992962e-01,2.865470966563092858e-01
3.527224000000000160e+03,2.273609766792148434e-01,2.698263783988501530e-01
3.529152000000000044e+03,2.259074535344200996e-01,2.625250708124644561e-01
3.531080999999999676e+03,2.244463679200219275e-01,2.526381891985423067e-01
3.533009000000000015e+03,2.229792346992809371e-01,2.458126960473565603e-01
3.534938000000000102e+03,2.215045319497708221e-01,2.520601612021842186e-01
3.536865999999999985e+03,2.200237886530853615e-01,2.618984558978505461e-01
3.538795000000000073e+03,2.185354687684615271e-01,2.635112154176564303e-01
3.540722999999999956e+03,2.170411153958315964e-01,2.841522684347452810e-01
3.542652000000000044e+03,2.155391783760922664e-01,2.878879355518719763e-01
3.544579999999999927e+03,2.140312149275196418e-01,2.711465559798851288e-01
3.546509000000000015e+03,2.125156607726683688e-01,2.672223203681571846e-01
3.548436999999999898e+03,2.109940872481477214e-01,2.774732183632293570e-01
3.550365999999999985e+03,2.094649159581845055e-01,2.720399534188446822e-01
3.552294000000000324e+03,2.079297323577176115e-01,2.659665421823964593e-01
3.554222999999999956e+03,2.063869439326424526e-01,2.668392115782554086e-01
3.556150999999999840e+03,2.048381502562310885e-01,2.935626844941170432e-01
3.558079999999999927e+03,2.032817446960422103e-01,3.242047292566558880e-01
3.560007999999999811e+03,2.017193409436863760e-01,3.506805663062753098e-01
3.561936999999999898e+03,2.001493182483837785e-01,3.606498779179485581e-01
3.563864999999999782e+03,1.985733044200816977e-01,3.633906776482440648e-01
3.565794000000000324e+03,1.969896645896671572e-01,3.481100417018767601e-01
3.567722000000000207e+03,1.954000406854206062e-01,3.505908388941119114e-01
3.569650999999999840e+03,1.938027837198923464e-01,4.028543503039143658e-01
3.571579000000000178e+03,1.921995497397013253e-01,4.417910206730359945e-01
3.573507999999999811e+03,1.905886756390593462e-01,4.414116335277356029e-01
3.575435999999999694e+03,1.889718315829238549e-01,3.864200373303550151e-01
3.577364999999999782e+03,1.873473403471681564e-01,3.081836536240789570e-01
3.579292999999999665e+03,1.857168862150864186e-01,2.471946920814049875e-01
3.581222000000000207e+03,1.840787778442187772e-01,1.912991785632627284e-01
3.583150000000000091e+03,1.824347136361925692e-01,1.516269651395063534e-01
3.585079000000000178e+03,1.807829881302112085e-01,1.154212165382064725e-01
3.587007000000000062e+03,1.791253138462405303e-01,6.738342011573195123e-02
3.588935999999999694e+03,1.774599712051454503e-01,4.827275410015641199e-02
3.590864000000000033e+03,1.757886868452303020e-01,6.054150329234797567e-02
3.592792999999999665e+03,1.741097270690215026e-01,6.076428746181772311e-02
3.594720999999999549e+03,1.724248326331601078e-01,7.269342366611297734e-02
3.596650000000000091e+03,1.707322557218411418e-01,8.453130897131000410e-02
3.598577999999999975e+03,1.690337512100335005e-01,8.219054930009139781e-02
3.600507000000000062e+03,1.673275571636008152e-01,7.850023693131280567e-02
3.602434999999999945e+03,1.656154425758487037e-01,6.914881774259296066e-02
3.604364000000000033e+03,1.638956313943005227e-01,6.515754529452255639e-02
3.606291999999999916e+03,1.621699067306057174e-01,6.385266244546450309e-02
3.608220999999999549e+03,1.604364784139455935e-01,4.881920252592220066e-02
3.610149000000000342e+03,1.586971436743027652e-01,3.688254406723423529e-02
3.612077999999999975e+03,1.569500982225306984e-01,1.637499066292225081e-02
3.614005999999999858e+03,1.551971534069434000e-01,-7.296932121683141759e-04
3.615934999999999945e+03,1.534364908200576139e-01,-3.772709710148980378e-03
3.617862999999999829e+03,1.516699359285258453e-01,-9.133222371561444675e-03
