wavenumber (/cm),baseline value (/cm),baseline-subtracted absorbance (/cm),
3.290019000000000233e+03,3.785312208760487351e-01,-2.220446049250313081e-16
3.291947000000000116e+03,3.782168616180179299e-01,-1.337085289965678214e-03
3.293875000000000000e+03,3.778900294855809250e-01,-2.861324918945196139e-03
3.295804000000000087e+03,3.775505452543193030e-01,1.967628091440132287e-03
3.297731999999999971e+03,3.771987609037310563e-01,-3.158158897514917740e-04
3.299660999999999603e+03,3.768343115122938514e-01,-4.950993711734685832e-03
3.301589000000000397e+03,3.764575749435614682e-01,-4.764657888575496436e-03
3.303518000000000029e+03,3.760681603919522331e-01,-1.749800652902755438e-03
3.305447000000000116e+03,3.756662600239195626e-01,-3.683594599874884246e-03
3.307375000000000000e+03,3.752520918932944483e-01,-1.645008948280457517e-03
3.309302999999999884e+03,3.748254508882595815e-01,6.398799598298365865e-04
3.311231999999999971e+03,3.743861060163133914e-01,6.962557734924157415e-05
3.313159999999999854e+03,3.739345127931308355e-01,-5.596395365358275420e-03
3.315089000000000397e+03,3.734702027610090624e-01,-6.862933422705275177e-03
3.317017000000000280e+03,3.729936573196823701e-01,-5.237552939440059951e-03
3.318945999999999913e+03,3.725043821273921196e-01,3.294482547141486251e-04
3.320875000000000000e+03,3.720026211186748810e-01,3.064853252247701221e-03
3.322802999999999884e+03,3.714886441154519048e-01,4.553387571407219170e-03
3.324730999999999767e+03,3.709621942378227288e-01,1.883099331608795168e-03
3.326659999999999854e+03,3.704229887251919706e-01,5.030506148992475168e-03
3.328587999999999738e+03,3.698715866294151056e-01,5.861777769466502974e-03
3.330517000000000280e+03,3.693074159566158698e-01,5.621475003309450713e-03
3.332445000000000164e+03,3.687310616426913157e-01,2.748901078650667351e-03
3.334374000000000251e+03,3.681419258097164970e-01,-1.347704001701588439e-03
3.336302000000000135e+03,3.675406192776407011e-01,-1.636425428619192601e-03
3.338230999999999767e+03,3.669265182845009576e-01,8.413288730013679384e-04
3.340159000000000106e+03,3.663002595342739198e-01,-3.735179895236750980e-05
3.342087999999999738e+03,3.656611933809621462e-01,5.266113235999569930e-03
3.344015999999999622e+03,3.650099824125909720e-01,5.783587018909464028e-03
3.345945000000000164e+03,3.643459510991036154e-01,4.098969683748232562e-03
3.347873000000000047e+03,3.636697879125811994e-01,3.595263345573584957e-03
3.349802000000000135e+03,3.629807914389289181e-01,9.626105112795269036e-03
3.351730000000000018e+03,3.622796760342588129e-01,1.455303598810830934e-02
3.353659000000000106e+03,3.615657144004345014e-01,2.204313928083290186e-02
3.355586999999999989e+03,3.608396467776167071e-01,2.324926282163775060e-02
3.357515999999999622e+03,3.601007199836168127e-01,2.999275625123865030e-02
3.359444000000000415e+03,3.593497001426513293e-01,3.564564002510262064e-02
3.361373000000000047e+03,3.585858081884829573e-01,2.840319460741635993e-02
3.363302000000000135e+03,3.578094304178875973e-01,1.967370098938170386e-02
3.365230000000000018e+03,3.570209790150293827e-01,1.706811697751497992e-02
3.367157999999999902e+03,3.562200547377649684e-01,1.450827704229085136e-02
3.369086999999999989e+03,3.554062324632560887e-01,7.164037807014134174e-03
3.371014999999999873e+03,3.545803559678404326e-01,-5.384083833637309802e-03
3.372944000000000415e+03,3.537415685331630755e-01,-1.041659183232435115e-02
3.374872000000000298e+03,3.528907398195997303e-01,-1.708906227999118510e-02
3.376800999999999931e+03,3.520269872247503429e-01,-1.700051937759294862e-02
3.378729000000000269e+03,3.511512062930393085e-01,-1.219295838996381498e-02
3.380657999999999902e+03,3.502624885380178910e-01,-1.390181752217445332e-02
3.382585999999999785e+03,3.493617553881556148e-01,-2.015812071900369151e-02
3.384514999999999873e+03,3.484480724729657197e-01,-2.203036511043077184e-02
3.386442999999999756e+03,3.475223871049557545e-01,-2.269927433701535158e-02
3.388372000000000298e+03,3.465837390295938292e-01,-1.448923763164422507e-02
3.390300000000000182e+03,3.456331014434361748e-01,-1.431632604735044723e-02
3.392229000000000269e+03,3.446694882079022193e-01,-1.842904086400654062e-02
3.394157000000000153e+03,3.436938984035933231e-01,-2.347525907460923378e-02
3.396085999999999785e+03,3.427053200078908901e-01,-2.090876828375287655e-02
3.398014000000000124e+03,3.417047779854343048e-01,-2.321353847005680482e-02
3.399942999999999756e+03,3.406912344295633943e-01,-2.338610861409273767e-02
3.401870999999999640e+03,3.396657401889555672e-01,-2.496378305941227005e-02
3.403800000000000182e+03,3.386272314729090738e-01,-2.751828459499661150e-02
3.405728000000000065e+03,3.375767850141571103e-01,-2.909346721359795662e-02
3.407657000000000153e+03,3.365133111379421393e-01,-2.041070163188429820e-02
3.409585000000000036e+03,3.354379124610389340e-01,-1.682887238648156369e-02
3.411514000000000124e+03,3.343494734246554856e-01,-1.561797295867228819e-02
3.413442000000000007e+03,3.332491225296010384e-01,-1.337102374115750614e-02
3.415370999999999640e+03,3.321357183330455598e-01,-1.117476772726733181e-02
3.417299000000000433e+03,3.310104152198434235e-01,-1.650817850036534473e-02
3.419228000000000065e+03,3.298720458631159147e-01,-1.489720895724444549e-02
3.421155999999999949e+03,3.287217905317696420e-01,-9.276869748917837555e-03
3.423085000000000036e+03,3.275584560148701030e-01,2.476949636945890987e-04
3.425012999999999920e+03,3.263832484653690358e-01,6.270432802105374570e-03
3.426942000000000007e+03,3.251949487883045720e-01,3.230121109179084904e-03
3.428869999999999891e+03,3.239947890206558156e-01,2.858260772006238071e-04
3.430799000000000433e+03,3.227815241834157689e-01,6.549789889277679578e-03
3.432727000000000317e+03,3.215564121976193235e-01,3.005470374608076867e-03
3.434655999999999949e+03,3.203181822002072465e-01,-1.971304287812003508e-03
3.436584000000000287e+03,3.190681179962666647e-01,-4.907353783778267697e-03
3.438512999999999920e+03,3.178049228386825575e-01,-2.968669343808461036e-03
3.440440999999999804e+03,3.165299064165907339e-01,2.927403681249884926e-04
3.442369999999999891e+03,3.152417460988381492e-01,4.234302363417263848e-03
3.444297999999999774e+03,3.139417774585950838e-01,8.716656837770231370e-03
3.446227000000000317e+03,3.126286519806740216e-01,1.523136665865498784e-02
3.448155000000000200e+03,3.113037311222832670e-01,1.235610112375584713e-02
3.450084000000000287e+03,3.099656404841866220e-01,1.180435019614889391e-02
3.452012000000000171e+03,3.086157674076481783e-01,1.677537891108427104e-02
3.453940999999999804e+03,3.072527116093866084e-01,2.200236760776153044e-02
3.455869000000000142e+03,3.058778863146933702e-01,2.837523577291145571e-02
3.457797999999999774e+03,3.044898653562633228e-01,3.605608058968257090e-02
3.459725999999999658e+03,3.030900878434223955e-01,3.661466518546863114e-02
3.461655000000000200e+03,3.016771017248203179e-01,3.881870442615820149e-02
3.463583000000000084e+03,3.002523719938317015e-01,4.319077805276660964e-02
3.465512000000000171e+03,2.988144207150540410e-01,5.248800239771389542e-02
3.467440000000000055e+03,2.973647387659212882e-01,6.533255853137598379e-02
3.469369000000000142e+03,2.959018223269751502e-01,8.126080581841166328e-02
3.471297000000000025e+03,2.944271881596876028e-01,8.860645582912873852e-02
3.473225999999999658e+03,2.929393065605729873e-01,9.216050704613720779e-02
3.475154000000000451e+03,2.914397201751377509e-01,9.578385857602733644e-02
3.477083000000000084e+03,2.899268734158511052e-01,1.077464723437016048e-01
3.479010999999999967e+03,2.884023348122681796e-01,1.230580566136404430e-01
3.480940000000000055e+03,2.868645228928095037e-01,1.367955889431643479e-01
3.482867999999999938e+03,2.853150320710824417e-01,1.390775121973238937e-01
3.484797000000000025e+03,2.837522549914517356e-01,1.401192268352023929e-01
3.486724999999999909e+03,2.821778119515698791e-01,1.406954406113378742e-01
3.488654000000000451e+03,2.805900697117706954e-01,1.467682713879496781e-01
3.490582000000000335e+03,2.789906744537411498e-01,1.521189248006856731e-01
3.492510999999999967e+03,2.773779670537734887e-01,1.538331233469719672e-01
3.494439000000000306e+03,2.757536195775927013e-01,1.504633422117829245e-01
3.496367999999999938e+03,2.741159470174530099e-01,1.521104276330595972e-01
3.498295999999999822e+03,2.724666473231245334e-01,1.557158317076304810e-01
3.500224999999999909e+03,2.708040096028128119e-01,1.649491124847920487e-01
3.502152999999999793e+03,2.691297576903366462e-01,1.808139515361312233e-01
3.504082000000000335e+03,2.674421548098564472e-01,1.986200073523056719e-01
3.506010000000000218e+03,2.657429506792290397e-01,2.144320726199321347e-01
3.507939000000000306e+03,2.640303826385803632e-01,2.327558242579713665e-01
3.509867000000000189e+03,2.623062262898052666e-01,2.457198687707725648e-01
3.511795999999999822e+03,2.605686930889810071e-01,2.587551652521187240e-01
3.513724000000000160e+03,2.588195845220582214e-01,2.813955133344189230e-01
3.515652999999999793e+03,2.570570861610654845e-01,3.073454301483473650e-01
3.517580999999999676e+03,2.552830253759914569e-01,3.353901339902713996e-01
3.519510000000000218e+03,2.534955618548266898e-01,3.605984735598983804e-01
3.521438000000000102e+03,2.516965488516085259e-01,3.822474399647941556e-01
3.523367000000000189e+03,2.498841201702717285e-01,3.976112199974822792e-01
3.525295000000000073e+03,2.480601549489023228e-01,3.950399382477426391e-01
3.527224000000000160e+03,2.462227611073970479e-01,3.828951326484276718e-01
3.529152000000000044e+03,2.443738436678799530e-01,3.662298841979169106e-01
3.531080999999999676e+03,2.425114846662026480e-01,3.539704351846826302e-01
3.533009000000000015e+03,2.406376150085343113e-01,3.420465415618291205e-01
3.534938000000000102e+03,2.387502908466885287e-01,3.379667641393319100e-01
3.536865999999999985e+03,2.368514689708725030e-01,3.420686615044303824e-01
3.538795000000000073e+03,2.349391796488546902e-01,3.594180430911266821e-01
3.540722999999999956e+03,2.330154055548909753e-01,3.857351070266560322e-01
3.542652000000000044e+03,2.310781510726975796e-01,4.077574500456621065e-01
3.544579999999999927e+03,2.291294247605861756e-01,4.122784969542320210e-01
3.546509000000000015e+03,2.271672051182278551e-01,4.046835870532539126e-01
3.548436999999999898e+03,2.251935265879652093e-01,3.883795395816527218e-01
3.550365999999999985e+03,2.232063417854348586e-01,3.770067057448539538e-01
3.552294000000000324e+03,2.212077110370209709e-01,3.760011426442465554e-01
3.554222999999999956e+03,2.191955610743185900e-01,3.985479617588594259e-01
3.556150999999999840e+03,2.171719781077641187e-01,4.321393918829162795e-01
3.558079999999999927e+03,2.151348629848897076e-01,4.772242236879901123e-01
3.560007999999999811e+03,2.130863278001804417e-01,5.196515100376574159e-01
3.561936999999999898e+03,2.110242475171375531e-01,5.348487254558355053e-01
3.563864999999999782e+03,2.089507601142805981e-01,5.204478419360455410e-01
3.565794000000000324e+03,2.068637146710692321e-01,5.044696497278122749e-01
3.567722000000000207e+03,2.047652750500610352e-01,5.079334201969100127e-01
3.569650999999999840e+03,2.026532644466776389e-01,5.462830822448413448e-01
3.571579000000000178e+03,2.005298726075217530e-01,5.757783286972313341e-01
3.573507999999999811e+03,1.983928968439663265e-01,5.650345961662853744e-01
3.575435999999999694e+03,1.962445527866627515e-01,4.982800511275963240e-01
3.577364999999999782e+03,1.940826118629388475e-01,4.061285717344516044e-01
3.579292999999999665e+03,1.919093155874840306e-01,3.133096033314347606e-01
3.581222000000000207e+03,1.897224095035880964e-01,2.429324833202701761e-01
3.583150000000000091e+03,1.875241610099891432e-01,1.897263515715580384e-01
3.585079000000000178e+03,1.853122897659211787e-01,1.475880830206584005e-01
3.587007000000000062e+03,1.830890890541709837e-01,1.110933899765839117e-01
3.588935999999999694e+03,1.808522526499309890e-01,8.861214623170932114e-02
3.590864000000000033e+03,1.786040997200331049e-01,8.374790400783277411e-02
3.592792999999999665e+03,1.763422981556246327e-01,8.026991060485999530e-02
3.594720999999999549e+03,1.740691930075755067e-01,7.945205582746645012e-02
3.596650000000000091e+03,1.717824262829985571e-01,8.762801174123252546e-02
3.598577999999999975e+03,1.694843689168017420e-01,8.628049594806308509e-02
3.600507000000000062e+03,1.671726370320492094e-01,8.636016818696290454e-02
3.602434999999999945e+03,1.648496274477047052e-01,9.091700815341358100e-02
3.604364000000000033e+03,1.625129304027836952e-01,8.989881237447633344e-02
3.606291999999999916e+03,1.601649686002879491e-01,7.740502208004756968e-02
3.608220999999999549e+03,1.578033063951984616e-01,5.437619034291896192e-02
3.610149000000000342e+03,1.554303923745550264e-01,3.498097761612534162e-02
3.612077999999999975e+03,1.530437650092935087e-01,2.693172427309231676e-02
3.614005999999999858e+03,1.506458987705023844e-01,2.107171539538765792e-02
3.615934999999999945e+03,1.482343062450652837e-01,1.940679347534479682e-02
3.617862999999999829e+03,1.458114877881264704e-01,9.448810441137212024e-03
