wavenumber (/cm),baseline value (/cm),baseline-subtracted absorbance (/cm),
3.290019000000000233e+03,6.705461323392327699e-01,3.774758283725532237e-15
3.291947000000000116e+03,6.713215754302623850e-01,-5.694362009944997638e-03
3.293875000000000000e+03,6.720607370617628362e-01,-4.637624293821751564e-03
3.295804000000000087e+03,6.727639723841676300e-01,-3.627905282582943869e-03
3.297731999999999971e+03,6.734305522784325149e-01,-8.123935316642683091e-03
3.299660999999999603e+03,6.740611682174701969e-01,-6.980087136388757330e-03
3.301589000000000397e+03,6.746551663744924099e-01,-4.680329468620625377e-03
3.303518000000000029e+03,6.752131629301629800e-01,-4.264421084868796896e-03
3.305447000000000116e+03,6.757348403801728409e-01,-4.650031433294232741e-03
3.307375000000000000e+03,6.762199565222388742e-01,-1.311650824637622392e-02
3.309302999999999884e+03,6.766687912047828490e-01,-1.676291981615207760e-02
3.311231999999999971e+03,6.770815489937120901e-01,-1.839002988839921748e-02
3.313159999999999854e+03,6.774578019390133932e-01,-1.983152048514558174e-02
3.315089000000000397e+03,6.777979403445755224e-01,-1.742422179844238528e-02
3.317017000000000280e+03,6.781016115526412591e-01,-1.302239440445784879e-02
3.318945999999999913e+03,6.783691305748291711e-01,-8.546204200178042498e-03
3.320875000000000000e+03,6.786003304913634793e-01,-2.647860780272459635e-03
3.322802999999999884e+03,6.787951196844730362e-01,-8.920003188666258964e-03
3.324730999999999767e+03,6.789536274180534292e-01,-1.591075696138921636e-02
3.326659999999999854e+03,6.790759076735000122e-01,-2.053723106585714220e-02
3.328587999999999738e+03,6.791618336698448388e-01,-2.175642826443868749e-02
3.330517000000000280e+03,6.792114945419314154e-01,-2.471102855870621617e-02
3.332445000000000164e+03,6.792248388010335702e-01,-2.387814728192738656e-02
3.334374000000000251e+03,6.792018802897388241e-01,-2.617019343046522728e-02
3.336302000000000135e+03,6.791426428116054126e-01,-2.861794570070075316e-02
3.338230999999999767e+03,6.790470649169506601e-01,-2.108900340716424182e-02
3.340159000000000106e+03,6.789152457015674713e-01,-2.080154579476323207e-02
3.342087999999999738e+03,6.787470484235385015e-01,-3.138824134059303717e-02
3.344015999999999622e+03,6.785426474709197464e-01,-2.684553656691157641e-02
3.345945000000000164e+03,6.783018308095307702e-01,-1.169325671819732015e-02
3.347873000000000047e+03,6.780248481196693433e-01,-1.044796088760913122e-02
3.349802000000000135e+03,6.777114120749061499e-01,-1.823331328646182747e-02
3.351730000000000018e+03,6.773618476478091566e-01,-2.077657271770583236e-02
3.353659000000000106e+03,6.769757922196717459e-01,-2.072695717773265223e-02
3.355586999999999989e+03,6.765536460553320808e-01,-2.450518379997279617e-02
3.357515999999999622e+03,6.760949712438275583e-01,-2.427390880207513923e-02
3.359444000000000415e+03,6.756002433422523268e-01,-1.899353318381757916e-02
3.361373000000000047e+03,6.750689491473806925e-01,-2.786018866275763450e-02
3.363302000000000135e+03,6.745013358468483489e-01,-2.867281767350227106e-02
3.365230000000000018e+03,6.738977259303169376e-01,-2.782596451372709723e-02
3.367157999999999902e+03,6.732578345542563625e-01,-2.491393893449811436e-02
3.369086999999999989e+03,6.725813015926433991e-01,-2.452445163924110716e-02
3.371014999999999873e+03,6.718688284793401522e-01,-2.329194124727984594e-02
3.372944000000000415e+03,6.711196761343671824e-01,-2.475900511852313635e-02
3.374872000000000298e+03,6.703346212838283691e-01,-3.039333517012776653e-02
3.376800999999999931e+03,6.695128495554740766e-01,-3.669178711372134138e-02
3.378729000000000269e+03,6.686552129676925915e-01,-3.713797158838172408e-02
3.380657999999999902e+03,6.677608218559711872e-01,-4.095280694450731396e-02
3.382585999999999785e+03,6.668306035309541357e-01,-3.867682906683400645e-02
3.384514999999999873e+03,6.658635930358656196e-01,-3.794187821759842372e-02
3.386442999999999756e+03,6.648607929736058963e-01,-3.929229343958828835e-02
3.388372000000000298e+03,6.638211630951502684e-01,-4.750336253596976199e-02
3.390300000000000182e+03,6.627457812956478733e-01,-5.575510096013913675e-02
3.392229000000000269e+03,6.616335320338180281e-01,-5.883390482039696501e-02
3.394157000000000153e+03,6.604855684970800667e-01,-4.966916588757341877e-02
3.396085999999999785e+03,6.593006998518831097e-01,-4.343583498701764078e-02
3.398014000000000124e+03,6.580801545778953709e-01,-3.134576501591879172e-02
3.399942999999999756e+03,6.568226665493313021e-01,-1.803608686619928569e-02
3.401870999999999640e+03,6.555295395381079970e-01,-3.037576507398820347e-02
3.403800000000000182e+03,6.541994321261768164e-01,-3.753866791368776212e-02
3.405728000000000065e+03,6.528337233777179449e-01,-3.715897966849102119e-02
3.407657000000000153e+03,6.514309965824125470e-01,-3.367796769145225966e-02
3.409585000000000036e+03,6.499927060967110037e-01,-2.476157841730697307e-02
3.411514000000000124e+03,6.485173599180313886e-01,-2.222192655363208758e-02
3.413442000000000007e+03,6.470064876950942789e-01,-2.965234044439468697e-02
3.415370999999999640e+03,6.454585221330475520e-01,-2.775302353099662334e-02
3.417299000000000433e+03,6.438750681728677705e-01,-2.353676435180496185e-02
3.419228000000000065e+03,6.422544832274539317e-01,-3.360863047815199067e-02
3.421155999999999949e+03,6.405984475300385839e-01,-4.469537204075546555e-02
3.423085000000000036e+03,6.389052432012505278e-01,-3.207392912855633327e-02
3.425012999999999920e+03,6.371766257665925082e-01,-1.159601066873561237e-02
3.426942000000000007e+03,6.354108020544373403e-01,-8.152647348006025751e-03
3.428869999999999891e+03,6.336096028825295434e-01,-1.009888526836300038e-02
3.430799000000000433e+03,6.317711597870143692e-01,-1.138625764349088243e-02
3.432727000000000317e+03,6.298973788778710059e-01,-4.207723705456745122e-03
3.434655999999999949e+03,6.279863163989816144e-01,1.093832715650888687e-03
3.436584000000000287e+03,6.260399537525955793e-01,2.962842146752686645e-03
3.438512999999999920e+03,6.240562718903390760e-01,4.717260262504296975e-03
3.440440999999999804e+03,6.220373275067174745e-01,4.650024094063898161e-04
3.442369999999999891e+03,6.199810262610867539e-01,-1.477785757515892584e-02
3.444297999999999774e+03,6.178895001402224807e-01,-5.546536486913389297e-03
3.446227000000000317e+03,6.157605795112246483e-01,-2.327502499118661028e-02
3.448155000000000200e+03,6.135964716531248087e-01,-2.286767388984345395e-02
3.450084000000000287e+03,6.113949316407527590e-01,1.180730507872596036e-02
3.452012000000000171e+03,6.091582420454102476e-01,2.930494527984683906e-02
3.453940999999999804e+03,6.068840826496781915e-01,3.182514381816958782e-02
3.455869000000000142e+03,6.045748113170859028e-01,3.254168448906580302e-02
3.457797999999999774e+03,6.022280325379796295e-01,2.868436261579554447e-02
3.459725999999999658e+03,5.998461794681588799e-01,2.312120170611953185e-02
3.461655000000000200e+03,5.974267813056854948e-01,2.325448616868608376e-02
3.463583000000000084e+03,5.949723464986291788e-01,3.376483896269477647e-02
3.465512000000000171e+03,5.924803289527744710e-01,4.189152566046017157e-02
3.467440000000000055e+03,5.899533124084754832e-01,3.838499141258777669e-02
3.469369000000000142e+03,5.873886754792536635e-01,4.812483803426070850e-02
3.471297000000000025e+03,5.847890771977120039e-01,6.265547079856093049e-02
3.473225999999999658e+03,5.821518208851301779e-01,6.631975413816948439e-02
3.475154000000000451e+03,5.794796408663458465e-01,6.425568066207953954e-02
3.477083000000000084e+03,5.767697651703969086e-01,7.464961973174721876e-02
3.479010999999999967e+03,5.740250034143770108e-01,7.456679528087040154e-02
3.480940000000000055e+03,5.712425083350467503e-01,5.495227265283841867e-02
3.482867999999999938e+03,5.684251648417841807e-01,5.360838595038819321e-02
3.484797000000000025e+03,5.655700503790868083e-01,7.145138484924551392e-02
3.486724999999999909e+03,5.626801251485815669e-01,7.226488883091586324e-02
3.488654000000000451e+03,5.597523913025241882e-01,7.240324709449397211e-02
3.490582000000000335e+03,5.567898843347833804e-01,9.216165340985860155e-02
3.492510999999999967e+03,5.537895311053517844e-01,9.036610729166638656e-02
3.494439000000000306e+03,5.507544424003683048e-01,7.568637773010777892e-02
3.496367999999999938e+03,5.476814697875624915e-01,7.251703906611939310e-02
3.498295999999999822e+03,5.445737993453434456e-01,8.994903383266272812e-02
3.500224999999999909e+03,5.414282073491705205e-01,8.387654567972124831e-02
3.502152999999999793e+03,5.382479551697016973e-01,4.547804669423149981e-02
3.504082000000000335e+03,5.350297437901687658e-01,3.805133729091303429e-02
3.506010000000000218e+03,5.317769098734643762e-01,8.745794567173637013e-02
3.507939000000000306e+03,5.284860791105501221e-01,9.903209423521031063e-02
3.509867000000000189e+03,5.251606634566101661e-01,8.316645676706246881e-02
3.511795999999999822e+03,5.217972133103288002e-01,1.068663468015078610e-01
3.513724000000000160e+03,5.183992159191461724e-01,1.367797216391022364e-01
3.515652999999999793e+03,5.149631463894976946e-01,1.562008797055634002e-01
3.517580999999999676e+03,5.114925672610723950e-01,1.571439658237372416e-01
3.519510000000000218e+03,5.079838783480568054e-01,1.625529343266876037e-01
3.521438000000000102e+03,5.044407174823959394e-01,1.478724232445387532e-01
3.523367000000000189e+03,5.008594091860061326e-01,1.164481397422334474e-01
3.525295000000000073e+03,4.972436665831025948e-01,1.227302383563206867e-01
3.527224000000000160e+03,4.935897389033527816e-01,1.050439982821091967e-01
3.529152000000000044e+03,4.899014145631994666e-01,1.155571129298116340e-01
3.531080999999999676e+03,4.861748675000754361e-01,1.554588696853864693e-01
3.533009000000000015e+03,4.824139614226936601e-01,1.800557496677075431e-01
3.534938000000000102e+03,4.786147949761954123e-01,1.704886532996672255e-01
3.536865999999999985e+03,4.747813071615709646e-01,1.567499137144778842e-01
3.538795000000000073e+03,4.709095213317056050e-01,1.744809726105129855e-01
3.540722999999999956e+03,4.670034517798384854e-01,1.825044699349804844e-01
3.542652000000000044e+03,4.630590465666131195e-01,1.489642525946177631e-01
3.544579999999999927e+03,4.590803952774962227e-01,8.525231674487154798e-02
3.546509000000000015e+03,4.550633706809037449e-01,7.246971412804392720e-02
3.548436999999999898e+03,4.510121376545583871e-01,1.184007234824413501e-01
3.550365999999999985e+03,4.469224936745845866e-01,1.400858940234590566e-01
3.552294000000000324e+03,4.427986789109894517e-01,1.174277889361687865e-01
3.554222999999999956e+03,4.386364155476556448e-01,1.510690830543952590e-01
3.556150999999999840e+03,4.344400190468249434e-01,1.970669707015446637e-01
3.558079999999999927e+03,4.302051363001240247e-01,2.125721237185160817e-01
3.560007999999999811e+03,4.259361580620506516e-01,2.071644943144643758e-01
3.561936999999999898e+03,4.216286559319755156e-01,2.003853235647632403e-01
3.563864999999999782e+03,4.172870959566736815e-01,1.624221305111739344e-01
3.565794000000000324e+03,4.129069744432101174e-01,4.802406003954917679e-02
3.567722000000000207e+03,4.084928327306656115e-01,4.716606754892493925e-02
3.569650999999999840e+03,4.040400918338491465e-01,2.233252390142410615e-01
3.571579000000000178e+03,3.995533683840690742e-01,3.171661097147200348e-01
3.573507999999999811e+03,3.950280081038854973e-01,3.239617402651739919e-01
3.575435999999999694e+03,3.904687029168485424e-01,2.861622383692659088e-01
3.577364999999999782e+03,3.858707232532978537e-01,2.554032748827701482e-01
3.579292999999999665e+03,3.812388363290324378e-01,2.231479297473895063e-01
3.581222000000000207e+03,3.765682372820933210e-01,2.015100478996405542e-01
3.583150000000000091e+03,3.718637686205852333e-01,1.690942928892009700e-01
3.585079000000000178e+03,3.671205501903003210e-01,1.001068496233070704e-01
3.587007000000000062e+03,3.623434997915566669e-01,-2.151404965176118012e-02
3.588935999999999694e+03,3.575276619778762210e-01,3.446861015632762815e-02
3.590864000000000033e+03,3.526780298418970006e-01,1.403247660574513667e-01
3.592792999999999665e+03,3.477895726448636537e-01,1.251209585760131304e-01
3.594720999999999549e+03,3.428673587716346560e-01,7.358464495623184831e-02
3.596650000000000091e+03,3.379062821912199865e-01,8.705084735211698899e-02
3.598577999999999975e+03,3.329114865807554224e-01,9.568869981253502743e-02
3.600507000000000062e+03,3.278777906169878520e-01,8.563572289652610081e-02
3.602434999999999945e+03,3.228104132692877215e-01,1.271411244753539727e-01
3.604364000000000033e+03,3.177040979221388284e-01,1.613061537088031905e-01
3.606291999999999916e+03,3.125641388371889207e-01,1.082541277052162521e-01
3.608220999999999549e+03,3.073852041066800211e-01,4.623828144784081218e-02
3.610149000000000342e+03,3.021726632844803362e-01,7.968847371458842588e-02
3.612077999999999975e+03,2.969211091706043248e-01,5.879930089463414333e-02
3.614005999999999858e+03,2.916359866111761789e-01,2.011611031333560007e-02
3.615934999999999945e+03,2.863118131139330558e-01,6.361176563723258681e-02
3.617862999999999829e+03,2.809541088172622381e-01,2.310180916969084564e-02
