wavenumber (/cm),baseline value (/cm),baseline-subtracted absorbance (/cm),
3.290019000000000233e+03,3.329002795899365097e-01,-1.998401444325281773e-15
3.291947000000000116e+03,3.321606909208103531e-01,-5.559572561071535191e-03
3.293875000000000000e+03,3.314148533856506873e-01,-2.452132043619048574e-03
3.295804000000000087e+03,3.306623752767539060e-01,2.920103754001202034e-03
3.297731999999999971e+03,3.299040367684193953e-01,7.548898925895608514e-03
3.299660999999999603e+03,3.291390512024392478e-01,1.189170369038450303e-02
3.301589000000000397e+03,3.283682117209245632e-01,6.149961624834832108e-03
3.303518000000000029e+03,3.275907186978619379e-01,-7.178789527312323671e-03
3.305447000000000116e+03,3.268069703248581703e-01,-9.789262962323075357e-03
3.307375000000000000e+03,3.260173777630228642e-01,-1.309566294475628112e-02
3.309302999999999884e+03,3.252215363351576016e-01,-7.260678926024333180e-03
3.311231999999999971e+03,3.244190283979246914e-01,-2.010827093171574376e-03
3.313159999999999854e+03,3.236106859968810312e-01,-2.456911532761951733e-03
3.315089000000000397e+03,3.227956706025647549e-01,-2.629780574605833365e-03
3.317017000000000280e+03,3.219748272283444734e-01,-3.540504754284690137e-05
3.318945999999999913e+03,3.211473043769430546e-01,7.010197952972863078e-03
3.320875000000000000e+03,3.203135261756031582e-01,3.316483144061299626e-03
3.322802999999999884e+03,3.194739297210622553e-01,-1.259415339301028780e-02
3.324730999999999767e+03,3.186280844004878432e-01,-6.375521492752556085e-03
3.326659999999999854e+03,3.177755466349179159e-01,1.221699763348804701e-02
3.328587999999999738e+03,3.169172003411686589e-01,1.032231503627745184e-02
3.330517000000000280e+03,3.160521551185144773e-01,2.297332299938448230e-03
3.332445000000000164e+03,3.151813078515859345e-01,1.072549550349299885e-02
3.334374000000000251e+03,3.143037551718501632e-01,1.158534082069406779e-02
3.336302000000000135e+03,3.134204069317449992e-01,5.572137336661286966e-03
3.338230999999999767e+03,3.125303467949240854e-01,1.000926177916738880e-02
3.340159000000000106e+03,3.116344975816431884e-01,1.187808396542111566e-02
3.342087999999999738e+03,3.107319299877380203e-01,1.592603832540273601e-02
3.344015999999999622e+03,3.098235798012787257e-01,1.809347518474213601e-02
3.345945000000000164e+03,3.089085047502884152e-01,1.303184939696211408e-02
3.347873000000000047e+03,3.079876535906542756e-01,2.401887017448989248e-02
3.349802000000000135e+03,3.070600710825805990e-01,3.267618241229341969e-02
3.351730000000000018e+03,3.061267189497680619e-01,1.426470695889925366e-02
3.353659000000000106e+03,3.051866289846110192e-01,1.291961519059858787e-02
3.355586999999999989e+03,3.042407758786218608e-01,2.755885133479840654e-02
3.357515999999999622e+03,3.032881784563805638e-01,2.491965006179253095e-02
3.359444000000000415e+03,3.023298243772147842e-01,3.195908522203949609e-02
3.361373000000000047e+03,3.013647194978883448e-01,4.894935319549453823e-02
3.363302000000000135e+03,3.003933592686234277e-01,3.882099301469432717e-02
3.365230000000000018e+03,2.994162521091370266e-01,2.256790446122636240e-02
3.367157999999999902e+03,2.984328960836162281e-01,5.736721810139400191e-03
3.369086999999999989e+03,2.974427762901221683e-01,1.294409171201049702e-03
3.371014999999999873e+03,2.964469192914256368e-01,-2.410572599906402047e-03
3.372944000000000415e+03,2.954442920408482109e-01,-6.802167157343941284e-03
3.374872000000000298e+03,2.944359340689741700e-01,-2.194554758629507774e-03
3.376800999999999931e+03,2.934207993613116017e-01,-4.142755961671351628e-04
3.378729000000000269e+03,2.923999404162618276e-01,-7.587265672552412354e-03
3.380657999999999902e+03,2.913722982515158932e-01,-9.945457617778652448e-03
3.382585999999999785e+03,2.903389383332886098e-01,-8.159068808591740662e-03
3.384514999999999873e+03,2.892987887114593093e-01,-1.135284276551340454e-02
3.386442999999999756e+03,2.882529278200545164e-01,-2.093233136152683471e-02
3.388372000000000298e+03,2.872002707411391853e-01,-2.604183644477409132e-02
3.390300000000000182e+03,2.861419088765595475e-01,-1.649139629501239490e-02
3.392229000000000269e+03,2.850767443405608503e-01,-1.467786270029991513e-02
3.394157000000000153e+03,2.840058815028028150e-01,-1.703570442917756722e-02
3.396085999999999785e+03,2.829282095097198635e-01,-1.913696999434266743e-02
3.398014000000000124e+03,2.818448456987860951e-01,-2.344969192432211358e-02
3.399942999999999756e+03,2.807546662486188893e-01,-1.930359448720220250e-02
3.401870999999999640e+03,2.796588014645067233e-01,-6.138764185848799571e-03
3.403800000000000182e+03,2.785561145572570396e-01,-2.005098874178634638e-02
3.405728000000000065e+03,2.774477487999682523e-01,-3.180096408421806409e-02
3.407657000000000153e+03,2.763325544356325381e-01,-2.063171566582822081e-02
3.409585000000000036e+03,2.752116877051689059e-01,-1.816788528205637299e-02
3.411514000000000124e+03,2.740839858837489373e-01,-2.082955904311556417e-02
3.413442000000000007e+03,2.729506181801069076e-01,-1.639143831058231804e-02
3.415370999999999640e+03,2.718104089016044611e-01,-5.382636301418219915e-03
3.417299000000000433e+03,2.706645402247849219e-01,-5.976748985269564329e-03
3.419228000000000065e+03,2.695118234891973330e-01,-1.221639012479869280e-02
3.421155999999999949e+03,2.683534538392029489e-01,-9.288216187758546738e-03
3.423085000000000036e+03,2.671882296465302176e-01,1.952497287299959083e-03
3.425012999999999920e+03,2.660173590233574359e-01,6.237999783725411973e-03
3.426942000000000007e+03,2.648396273736013384e-01,9.932040846342804485e-03
3.428869999999999891e+03,2.636562557772528237e-01,1.461401449301735767e-02
3.430799000000000433e+03,2.624660166704124720e-01,1.323854996518858407e-02
3.432727000000000317e+03,2.612701441008873360e-01,1.141951107152650025e-02
3.434655999999999949e+03,2.600673975369636182e-01,-1.255654759703572765e-03
3.436584000000000287e+03,2.588590239942591964e-01,-9.726684758471382253e-03
3.438512999999999920e+03,2.576437699732512243e-01,-7.769585443894166943e-03
3.440440999999999804e+03,2.564228954573728458e-01,2.798072453296107653e-04
3.442369999999999891e+03,2.551951339792806195e-01,2.272713178221641428e-03
3.444297999999999774e+03,2.539617584902229552e-01,1.002333004658995108e-02
3.446227000000000317e+03,2.527214895550473628e-01,3.621474098261190377e-03
3.448155000000000200e+03,2.514756130928130773e-01,-5.884746364015258635e-03
3.450084000000000287e+03,2.502228367005523424e-01,-1.572324119005541476e-03
3.452012000000000171e+03,2.489644592651432120e-01,6.029948936161488859e-03
3.453940999999999804e+03,2.476991754157991110e-01,1.745180314897254448e-02
3.455869000000000142e+03,2.464282970072106949e-01,2.020264427890339221e-02
3.457797999999999774e+03,2.451505057007823396e-01,2.290261638682267176e-02
3.459725999999999658e+03,2.438671263190190786e-01,2.884396408172640314e-02
3.461655000000000200e+03,2.425768275555055808e-01,2.631226843703848850e-02
3.463583000000000084e+03,2.412809472005639222e-01,2.507133611723699751e-02
3.465512000000000171e+03,2.399781409799679466e-01,3.991188697902536830e-02
3.467440000000000055e+03,2.386697596518496667e-01,5.476919654572709462e-02
3.469369000000000142e+03,2.373544459741685486e-01,6.287202187298879252e-02
3.471297000000000025e+03,2.360335636728745357e-01,7.027398525536399099e-02
3.473225999999999658e+03,2.347057425381100515e-01,7.815912232675503724e-02
3.475154000000000451e+03,2.333723592636367528e-01,8.978514306627927155e-02
3.477083000000000084e+03,2.320320306717889025e-01,9.479089570286181043e-02
3.479010999999999967e+03,2.306861464241398707e-01,9.685066625060390066e-02
3.480940000000000055e+03,2.293333103752059898e-01,1.060366803051291384e-01
3.482867999999999938e+03,2.279749251543821131e-01,1.268694364485998261e-01
3.484797000000000025e+03,2.266095816483639780e-01,1.325115739900328826e-01
3.486724999999999909e+03,2.252386954543617037e-01,1.332440631663278641e-01
3.488654000000000451e+03,2.238608444912610906e-01,1.326480091900066327e-01
3.490582000000000335e+03,2.224774573240813069e-01,1.334684886218644451e-01
3.492510999999999967e+03,2.210870989038955514e-01,1.344888563617148147e-01
3.494439000000000306e+03,2.196912107635400346e-01,1.317086028431699862e-01
3.496367999999999938e+03,2.182883448862709130e-01,1.336613289254717785e-01
3.498295999999999822e+03,2.168799557727378868e-01,1.476633806671503457e-01
3.500224999999999909e+03,2.154645824383836228e-01,1.567162190527628951e-01
3.502152999999999793e+03,2.140436923516748635e-01,1.590951706492569340e-01
3.504082000000000335e+03,2.126158115602363452e-01,1.722238902104997749e-01
3.506010000000000218e+03,2.111824205003491883e-01,1.911046251660066808e-01
3.507939000000000306e+03,2.097420322518281921e-01,2.000650506931855865e-01
3.509867000000000189e+03,2.082961402187644140e-01,2.090747824280203560e-01
3.511795999999999822e+03,2.068432445131582753e-01,2.364372773880529799e-01
3.513724000000000160e+03,2.053848515069187641e-01,2.718751671324102226e-01
3.515652999999999793e+03,2.039194483442283712e-01,2.943470940602450625e-01
3.517580999999999676e+03,2.024485543648113506e-01,3.125234866417123669e-01
3.519510000000000218e+03,2.009706437450358152e-01,3.323462248476947156e-01
3.521438000000000102e+03,1.994872487924430615e-01,3.562070662122167608e-01
3.523367000000000189e+03,1.979968307155841600e-01,3.629053128072485812e-01
3.525295000000000073e+03,1.965009347898130088e-01,3.620712926100002615e-01
3.527224000000000160e+03,1.949980092558716294e-01,3.497829786285644449e-01
3.529152000000000044e+03,1.934896123569229687e-01,3.370546560494143140e-01
3.531080999999999676e+03,1.919741793658964468e-01,3.354023350795836134e-01
3.533009000000000015e+03,1.904532814937729412e-01,3.287424314605604803e-01
3.534938000000000102e+03,1.889253410456612770e-01,3.200718630549910237e-01
3.536865999999999985e+03,1.873919422003593738e-01,3.277413290018773573e-01
3.538795000000000073e+03,1.858514942951661197e-01,3.338530723404347089e-01
3.540722999999999956e+03,1.843055944766867071e-01,3.432647689902283972e-01
3.542652000000000044e+03,1.827526391144074225e-01,3.621439126097305561e-01
3.544579999999999927e+03,1.811942383227531650e-01,3.744711857219811257e-01
3.546509000000000015e+03,1.796287755033896261e-01,3.683796121946529833e-01
3.548436999999999898e+03,1.780578737385578592e-01,3.537762362334828659e-01
3.550365999999999985e+03,1.764799034621100660e-01,3.425918579544788845e-01
3.552294000000000324e+03,1.748965007241016778e-01,3.331873762563271058e-01
3.554222999999999956e+03,1.733060229905705185e-01,3.488468195070995037e-01
3.556150999999999840e+03,1.717101192793846209e-01,4.018742236842687277e-01
3.558079999999999927e+03,1.701071340887700956e-01,4.607381594806612135e-01
3.560007999999999811e+03,1.684987294044066886e-01,5.053726592256022609e-01
3.561936999999999898e+03,1.668832367567070207e-01,5.177989626841128512e-01
3.563864999999999782e+03,1.652623310991687688e-01,4.909818441105235909e-01
3.565794000000000324e+03,1.636343309943839586e-01,4.534793689124192451e-01
3.567722000000000207e+03,1.620009243636673091e-01,4.560028035021295167e-01
3.569650999999999840e+03,1.603604168018000209e-01,5.220384648384608361e-01
3.571579000000000178e+03,1.587145091979076383e-01,5.653991907088959934e-01
3.573507999999999811e+03,1.570614941789552077e-01,5.612227555880531238e-01
3.575435999999999694e+03,1.554030856018853157e-01,4.982707261408918509e-01
3.577364999999999782e+03,1.537375631258504072e-01,3.969064256905521226e-01
3.579292999999999665e+03,1.520666535756030058e-01,3.108196465175934176e-01
3.581222000000000207e+03,1.503886236424820666e-01,2.480801554814693333e-01
3.583150000000000091e+03,1.487052131190589321e-01,1.996442742993937980e-01
3.585079000000000178e+03,1.470146757288546269e-01,1.577253056318166369e-01
3.587007000000000062e+03,1.453187642322539830e-01,1.105731276596375601e-01
3.588935999999999694e+03,1.436157193849671998e-01,9.985958350412871276e-02
3.590864000000000033e+03,1.419073069151881583e-01,1.145502886113727303e-01
3.592792999999999665e+03,1.401917546108162327e-01,1.219042379334520643e-01
3.594720999999999549e+03,1.384708411678632345e-01,1.245869407519879513e-01
3.596650000000000091e+03,1.367427814064052782e-01,1.292572185935947360e-01
3.598577999999999975e+03,1.350093669902738824e-01,1.231183124132677609e-01
3.600507000000000062e+03,1.332687997717343364e-01,1.091915916541743581e-01
3.602434999999999945e+03,1.315228843824263194e-01,1.004286533622147370e-01
3.604364000000000033e+03,1.297698097068007428e-01,1.014846171338330549e-01
3.606291999999999916e+03,1.280113933443152163e-01,9.400631401821990529e-02
3.608220999999999549e+03,1.262458112116080500e-01,6.291541898410524247e-02
3.610149000000000342e+03,1.244748938759450141e-01,3.275343790411078260e-02
3.612077999999999975e+03,1.226968042861518171e-01,1.364522740070750473e-02
3.614005999999999858e+03,1.209133859773148245e-01,-4.446470786261702557e-03
3.615934999999999945e+03,1.191227889304373733e-01,6.311507434893393054e-03
3.617862999999999829e+03,1.173268696484210949e-01,8.673130351578794972e-03
