wavenumber (/cm),baseline value (/cm),baseline-subtracted absorbance (/cm),
3.290019000000000233e+03,4.592015767506580914e-01,-4.440892098500626162e-16
3.291947000000000116e+03,4.590038781885574792e-01,-4.288311640404884884e-03
3.293875000000000000e+03,4.587904777815126067e-01,-1.940950330201474117e-04
3.295804000000000087e+03,4.585612526263957989e-01,9.865909352058110926e-04
3.297731999999999971e+03,4.583164403853636770e-01,5.447665349680441693e-03
3.299660999999999603e+03,4.580557871038095641e-01,5.084574621341264589e-03
3.301589000000000397e+03,4.577795630287866402e-01,1.843253480720896675e-03
3.303518000000000029e+03,4.574874816207987749e-01,-1.541431226610878724e-03
3.305447000000000116e+03,4.571796820754236990e-01,-1.647915187187098951e-03
3.307375000000000000e+03,4.568563361773598785e-01,-6.892315243991475882e-04
3.309302999999999884e+03,4.565172884343553505e-01,-2.250786656645686890e-03
3.311231999999999971e+03,4.561623507734928751e-01,-4.080885322881755428e-03
3.313159999999999854e+03,4.557918911965010977e-01,-2.952194179960621057e-03
3.315089000000000397e+03,4.554055254092048699e-01,-1.226377913350340521e-04
3.317017000000000280e+03,4.550036539982187378e-01,-4.442166817861803452e-04
3.318945999999999913e+03,4.545858600844887576e-01,-2.624196767128328389e-03
3.320875000000000000e+03,4.541523480333715668e-01,3.019548704918495474e-03
3.322802999999999884e+03,4.537033547993480909e-01,4.167258896741188323e-03
3.324730999999999767e+03,4.532386597203803547e-01,1.463767238964130968e-03
3.326659999999999854e+03,4.527580095537793170e-01,5.022945771619102828e-03
3.328587999999999738e+03,4.522619026408243315e-01,8.868874913666502380e-03
3.330517000000000280e+03,4.517498243477859887e-01,9.687801251224481547e-03
3.332445000000000164e+03,4.512223056008366484e-01,9.545973885946690274e-03
3.334374000000000251e+03,4.506787991813645533e-01,6.917428983730822267e-03
3.336302000000000135e+03,4.501198686004244109e-01,6.203365284256801004e-03
3.338230999999999767e+03,4.495449340545185635e-01,6.457539279845381230e-03
3.340159000000000106e+03,4.489545916395911718e-01,6.953585822149666029e-03
3.342087999999999738e+03,4.483482289672444665e-01,8.584836421533292850e-03
3.344015999999999622e+03,4.477264747183262728e-01,8.969305154916007439e-03
3.345945000000000164e+03,4.470886839195458151e-01,6.441227967917573238e-03
3.347873000000000047e+03,4.464355178366403720e-01,6.626779272649763186e-03
3.349802000000000135e+03,4.457662989114261620e-01,5.961170558353323656e-03
3.351730000000000018e+03,4.450817209945228115e-01,7.896328162997789946e-03
3.353659000000000106e+03,4.443810739428748491e-01,1.046047807443883926e-02
3.355586999999999989e+03,4.436650841919842492e-01,1.084565935415904292e-02
3.357515999999999622e+03,4.429330090138989817e-01,1.482012129990550875e-02
3.359444000000000415e+03,4.421856074290175798e-01,1.218523814216876389e-02
3.361373000000000047e+03,4.414221041244950072e-01,6.152482364916167512e-03
3.363302000000000135e+03,4.406428826825887768e-01,2.179810160200190694e-03
3.365230000000000018e+03,4.398483592746700310e-01,-4.341325730072842504e-03
3.367157999999999902e+03,4.390381340218070250e-01,-4.068277784366802763e-03
3.369086999999999989e+03,4.382117744644133950e-01,-2.280409493011337219e-03
3.371014999999999873e+03,4.373701373775631396e-01,-5.676949598782954354e-04
3.372944000000000415e+03,4.365123496937357572e-01,-2.426710491385986046e-03
3.374872000000000298e+03,4.356393007728911471e-01,-3.216318905288062524e-04
3.376800999999999931e+03,4.347500849626300123e-01,-1.891065021371485244e-03
3.378729000000000269e+03,4.338456242077946001e-01,6.434776626647042974e-04
3.380657999999999902e+03,4.329249802710997130e-01,2.510171993546972402e-03
3.382585999999999785e+03,4.319891076822734988e-01,-5.437529133756058286e-04
3.384514999999999873e+03,4.310370356191377539e-01,-4.555353751769963822e-03
3.386442999999999756e+03,4.300697511963242903e-01,9.736867384417813298e-04
3.388372000000000298e+03,4.290862510067547930e-01,5.912203159268436536e-03
3.390300000000000182e+03,4.280875547499505274e-01,1.781822278956735062e-03
3.392229000000000269e+03,4.270726264339472777e-01,1.553900077105208055e-03
3.394157000000000153e+03,4.260425183431522100e-01,8.764252409668937815e-03
3.396085999999999785e+03,4.249961619007081026e-01,5.852500952901351639e-03
3.398014000000000124e+03,4.239346419759257856e-01,5.719864130118157419e-03
3.399942999999999756e+03,4.228568574070479258e-01,3.888389153472004978e-03
3.401870999999999640e+03,4.217639256482712540e-01,-3.000592830215698115e-03
3.403800000000000182e+03,4.206547129529596418e-01,-3.554697494619674103e-03
3.405728000000000065e+03,4.195303693601957207e-01,-1.498216013464670482e-03
3.407657000000000153e+03,4.183897285384468034e-01,-4.572814832601856949e-04
3.409585000000000036e+03,4.172339731116920802e-01,1.428107580841775359e-03
3.411514000000000124e+03,4.160619041635058579e-01,3.410193533202043881e-03
3.413442000000000007e+03,4.148747369027638854e-01,9.421135720516282674e-03
3.415370999999999640e+03,4.136712398281439107e-01,2.270173064112146477e-03
3.417299000000000433e+03,4.124526607334040307e-01,-3.402575712534883223e-03
3.419228000000000065e+03,4.112177355323503036e-01,-1.492696416119487779e-02
3.421155999999999949e+03,4.099677446036231743e-01,-1.964466530233988095e-02
3.423085000000000036e+03,4.087013912761356949e-01,-1.010346269366513283e-02
3.425012999999999920e+03,4.074199885134142107e-01,-2.171109243048086057e-03
3.426942000000000007e+03,4.061222070594894262e-01,9.654417270312798394e-04
3.428869999999999891e+03,4.048093924627806928e-01,1.138203765384648847e-03
3.430799000000000433e+03,4.034801828824186032e-01,2.113417364914660368e-03
3.432727000000000317e+03,4.021359564517226204e-01,2.459807963179461154e-03
3.434655999999999949e+03,4.007753187449232257e-01,5.045519097092832084e-03
3.436584000000000287e+03,3.993996804802328882e-01,5.325933988773456917e-03
3.438512999999999920e+03,3.980076146470032938e-01,2.665596050168250741e-03
3.440440999999999804e+03,3.966005645483221542e-01,3.232258365906126585e-04
3.442369999999999891e+03,3.951770705886552548e-01,-4.946741326017800588e-03
3.444297999999999774e+03,3.937386086559833132e-01,-3.874642045996967710e-03
3.446227000000000317e+03,3.922836865698826614e-01,-1.503990855164127893e-02
3.448155000000000200e+03,3.908138128032234704e-01,-1.445657057103888476e-02
3.450084000000000287e+03,3.893274625906819608e-01,6.035808394014186007e-03
3.452012000000000171e+03,3.878261769900319678e-01,1.647587896915814198e-02
3.453940999999999804e+03,3.863083986510567058e-01,1.732199244493948243e-02
3.455869000000000142e+03,3.847757012164159107e-01,1.624145754073369474e-02
3.457797999999999774e+03,3.832264947510068964e-01,2.215764499238481733e-02
3.459725999999999658e+03,3.816623854823752993e-01,2.679564512513810115e-02
3.461655000000000200e+03,3.800817508905289799e-01,2.014471378716464756e-02
3.463583000000000084e+03,3.784862297879030280e-01,2.302095834009243447e-02
3.465512000000000171e+03,3.768741670696265089e-01,3.303849331064911965e-02
3.467440000000000055e+03,3.752472341330133077e-01,4.500164513735294136e-02
3.469369000000000142e+03,3.736037432882959308e-01,4.683681939527239990e-02
3.471297000000000025e+03,3.719453985176919275e-01,5.391640392472618615e-02
3.473225999999999658e+03,3.702704795465443510e-01,5.998535597672072228e-02
3.475154000000000451e+03,3.685807229419459929e-01,5.984020765010855669e-02
3.477083000000000084e+03,3.668743758443611114e-01,7.671350481725580650e-02
3.479010999999999967e+03,3.651532074057755040e-01,8.163996000804418784e-02
3.480940000000000055e+03,3.634154321817533173e-01,6.949305444678266497e-02
3.482867999999999938e+03,3.616628519091769078e-01,7.046808022871209332e-02
3.484797000000000025e+03,3.598936485587209688e-01,8.392842595047644849e-02
3.486724999999999909e+03,3.581096564521537573e-01,8.753109173149198341e-02
3.488654000000000451e+03,3.563090249752605132e-01,9.007295060056241809e-02
3.490582000000000335e+03,3.544936210347060523e-01,9.491045996699476461e-02
3.492510999999999967e+03,3.526615614313755032e-01,9.240722818062030441e-02
3.494439000000000306e+03,3.508147456568266875e-01,8.385985629092385096e-02
3.496367999999999938e+03,3.489512579270623860e-01,8.626747758074460037e-02
3.498295999999999822e+03,3.470730303185298737e-01,9.863264289216688852e-02
3.500224999999999909e+03,3.451781144623282671e-01,9.713058858296497178e-02
3.502152999999999793e+03,3.432684750197978474e-01,7.865299661414848487e-02
3.504082000000000335e+03,3.413421310371624884e-01,7.504834662553649949e-02
3.506010000000000218e+03,3.394010797606448193e-01,1.026703377691129404e-01
3.507939000000000306e+03,3.374433076515757080e-01,1.121980588656605882e-01
3.509867000000000189e+03,3.354708445410672368e-01,1.186859030242448654e-01
3.511795999999999822e+03,3.334816443055608204e-01,1.441238588633990680e-01
3.513724000000000160e+03,3.314777693610615472e-01,1.619408424800270474e-01
3.515652999999999793e+03,3.294571409991213784e-01,1.761812884335580698e-01
3.517580999999999676e+03,3.274218542206313032e-01,1.892144110444795579e-01
3.519510000000000218e+03,3.253697977322538293e-01,2.041022999644535041e-01
3.521438000000000102e+03,3.233030991197729520e-01,2.030665097842305755e-01
3.523367000000000189e+03,3.212196145049581730e-01,1.952937569589470179e-01
3.525295000000000073e+03,3.191215040584900464e-01,2.085875699869577105e-01
3.527224000000000160e+03,3.170065913172415151e-01,1.990909508067342237e-01
3.529152000000000044e+03,3.148770690367790337e-01,1.974385902614121946e-01
3.531080999999999676e+03,3.127307281690931973e-01,2.075776657094046129e-01
3.533009000000000015e+03,3.105697940546434666e-01,2.139455869934323573e-01
3.534938000000000102e+03,3.083920250605238778e-01,2.055830870124393250e-01
3.536865999999999985e+03,3.061996791120833450e-01,1.976455829067758074e-01
3.538795000000000073e+03,3.039904819915264511e-01,2.093562485696116582e-01
3.540722999999999956e+03,3.017667242090951163e-01,2.101238307453026088e-01
3.542652000000000044e+03,2.995260989621044700e-01,1.829132270542817018e-01
3.544579999999999927e+03,2.972709293456823332e-01,1.434347438650154238e-01
3.546509000000000015e+03,2.949988759722543818e-01,1.338602985524017797e-01
3.548436999999999898e+03,2.927122945218414429e-01,1.642818313090446125e-01
3.550365999999999985e+03,2.904088130219832919e-01,1.732625426744149877e-01
3.552294000000000324e+03,2.880908197375759983e-01,1.510373298991534163e-01
3.554222999999999956e+03,2.857559101112805422e-01,1.779834622801246269e-01
3.556150999999999840e+03,2.834065049928859992e-01,2.119188930593631781e-01
3.558079999999999927e+03,2.810401672401567907e-01,2.309786919343683742e-01
3.560007999999999811e+03,2.786593502877714457e-01,2.456349765015310993e-01
3.561936999999999898e+03,2.762615844086013794e-01,2.607371789242169946e-01
3.563864999999999782e+03,2.738493556222252323e-01,2.478417867490843030e-01
3.565794000000000324e+03,2.714201616166214137e-01,1.937653384606705664e-01
3.567722000000000207e+03,2.689765209962580172e-01,2.199761764840326705e-01
3.569650999999999840e+03,2.665158988642204463e-01,3.399325475726322487e-01
3.571579000000000178e+03,2.640408464098626951e-01,4.017768997641990580e-01
3.573507999999999811e+03,2.615487961513878190e-01,4.003263004632358069e-01
3.575435999999999694e+03,2.590423318630428184e-01,3.550950927775509136e-01
3.577364999999999782e+03,2.565188534781306373e-01,2.972035147395231114e-01
3.579292999999999665e+03,2.539809773557948347e-01,2.359077225978305492e-01
3.581222000000000207e+03,2.514260708444489012e-01,1.897874088278341809e-01
3.583150000000000091e+03,2.488567828881222965e-01,1.511779983763705815e-01
3.585079000000000178e+03,2.462704482503426107e-01,9.785383680144299490e-02
3.587007000000000062e+03,2.436697484600216512e-01,1.510054061093191180e-02
3.588935999999999694e+03,2.410519856958046603e-01,4.403148933897682582e-02
3.590864000000000033e+03,2.384198740714964515e-01,9.853096840802155754e-02
3.592792999999999665e+03,2.357706831808457082e-01,7.318201429944481973e-02
3.594720999999999549e+03,2.331071597225466974e-01,5.000228532305595053e-02
3.596650000000000091e+03,2.304265407054586490e-01,6.888247150663007190e-02
3.598577999999999975e+03,2.277316054131688361e-01,7.811319285549744862e-02
3.600507000000000062e+03,2.250195582696434826e-01,7.810457219874411550e-02
3.602434999999999945e+03,2.222932111433664204e-01,9.227627409391958579e-02
3.604364000000000033e+03,2.195497358734073146e-01,1.035465695833868160e-01
3.606291999999999916e+03,2.167919769131358976e-01,6.728825187029352506e-02
3.608220999999999549e+03,2.140170735167465921e-01,2.786961685270838984e-02
3.610149000000000342e+03,2.112279027224808203e-01,4.175169226901731534e-02
3.612077999999999975e+03,2.084215711996542097e-01,2.010834068780908979e-02
3.614005999999999858e+03,2.056009885714011887e-01,-4.145585881649704874e-03
3.615934999999999945e+03,2.027632289221337203e-01,2.039954739568994313e-02
3.617862999999999829e+03,1.999112344598970026e-01,-1.191491298611069283e-04
