wavenumber (/cm),baseline value (/cm),baseline-subtracted absorbance (/cm),
3.290019000000000233e+03,3.360279589934762612e-01,0.000000000000000000e+00
3.291947000000000116e+03,3.333327716505820604e-01,8.829390511579937595e-03
3.293875000000000000e+03,3.306517807207676185e-01,7.766672214926106932e-03
3.295804000000000087e+03,3.279836066954047169e-01,6.172031701612734622e-03
3.297731999999999971e+03,3.253310159550366620e-01,7.128443504422765642e-03
3.299660999999999603e+03,3.226912568495095002e-01,1.007109170594233660e-02
3.301589000000000397e+03,3.200670662985842796e-01,1.860240318377393010e-03
3.303518000000000029e+03,3.174557221128928575e-01,-1.185926358540045911e-02
3.305447000000000116e+03,3.148585890706705470e-01,-8.990928306457757202e-03
3.307375000000000000e+03,3.122770024855547888e-01,-2.099928860205935166e-03
3.309302999999999884e+03,3.097096123135223422e-01,-8.320982304203194957e-03
3.311231999999999971e+03,3.071550979674952941e-01,-4.577278768986836610e-03
3.313159999999999854e+03,3.046161079849056819e-01,4.267624717573248461e-04
3.315089000000000397e+03,3.020900085587143735e-01,-2.652916294036078426e-03
3.317017000000000280e+03,2.995794187655747010e-01,-1.748104692881558009e-03
3.318945999999999913e+03,2.970817342592155796e-01,-1.552377316066166912e-03
3.320875000000000000e+03,2.945982608963291227e-01,-1.277067468943293704e-02
3.322802999999999884e+03,2.921302750689953598e-01,-1.275562455641399140e-02
3.324730999999999767e+03,2.896764856547449085e-01,6.153896451498663822e-03
3.326659999999999854e+03,2.872356309880537140e-01,1.686502138846002197e-02
3.328587999999999738e+03,2.848102417632460970e-01,1.163244230012727698e-02
3.330517000000000280e+03,2.823978020163906422e-01,9.570511124336711362e-03
3.332445000000000164e+03,2.800008129810258595e-01,1.354345542531110169e-02
3.334374000000000251e+03,2.776167881540061444e-01,1.703745229333764044e-02
3.336302000000000135e+03,2.752481993080877487e-01,1.098479230421434139e-02
3.338230999999999767e+03,2.728925894009002207e-01,3.820364932743736119e-03
3.340159000000000106e+03,2.705524007444282120e-01,-3.626026093915601933e-03
3.342087999999999738e+03,2.682252057570764237e-01,-1.273668012435003050e-03
3.344015999999999622e+03,2.659134172900472493e-01,4.487328283111935434e-03
3.345945000000000164e+03,2.636146372225276480e-01,1.434994805240208393e-02
3.347873000000000047e+03,2.613312489449448606e-01,7.436691409202111913e-03
3.349802000000000135e+03,2.590608837972609990e-01,1.827280228833938480e-03
3.351730000000000018e+03,2.568058957091245986e-01,1.801796263197452674e-02
3.353659000000000106e+03,2.545639454812729241e-01,2.982934436029260894e-02
3.355586999999999989e+03,2.523373575825793580e-01,3.399069460754144956e-02
3.357515999999999622e+03,2.501238222745669759e-01,3.741765023242260568e-02
3.359444000000000415e+03,2.479256345653162441e-01,3.473885751296856839e-02
3.361373000000000047e+03,2.457405141771324963e-01,3.020170390301624153e-02
3.363302000000000135e+03,2.435696049324178603e-01,3.327289273766576017e-02
3.365230000000000018e+03,2.414140211889801435e-01,2.865214842891283809e-02
3.367157999999999902e+03,2.392726338586257384e-01,2.169381534920233889e-02
3.369086999999999989e+03,2.371443433101099174e-01,9.511761070132518370e-03
3.371014999999999873e+03,2.350313561691983466e-01,1.130415175251586746e-02
3.372944000000000415e+03,2.329314805405147126e-01,1.215332840636262901e-02
3.374872000000000298e+03,2.308468935890530815e-01,2.486792467748877300e-02
3.376800999999999931e+03,2.287754328802051873e-01,3.325532201261838239e-02
3.378729000000000269e+03,2.267192461181828378e-01,1.890237550343876194e-02
3.380657999999999902e+03,2.246762003291706833e-01,9.409540584156772525e-03
3.382585999999999785e+03,2.226484137565947208e-01,1.467591056772965530e-02
3.384514999999999873e+03,2.206337828874147533e-01,2.595708384138273317e-02
3.386442999999999756e+03,2.186343965042851778e-01,2.028731831398067342e-02
3.388372000000000298e+03,2.166481805549373973e-01,9.190589249349123691e-03
3.390300000000000182e+03,2.146771943612542088e-01,1.388664534051642363e-02
3.392229000000000269e+03,2.127193933317421681e-01,1.521723294971133456e-02
3.394157000000000153e+03,2.107768073275018139e-01,2.084108642832216418e-02
3.396085999999999785e+03,2.088474212178219602e-01,1.671455455104986498e-02
3.398014000000000124e+03,2.069332354030279930e-01,1.623638249072723028e-02
3.399942999999999756e+03,2.050322642131838791e-01,2.464154752959313299e-02
3.401870999999999640e+03,2.031464785878327461e-01,2.138194638886803389e-02
3.403800000000000182e+03,2.012739223178243719e-01,1.005599380519539565e-02
3.405728000000000065e+03,1.994165368819196260e-01,1.334767560643035367e-02
3.407657000000000153e+03,1.975723955317434388e-01,1.962984118773425379e-02
3.409585000000000036e+03,1.957434102852850799e-01,1.654083948172235807e-02
3.411514000000000124e+03,1.939276838549410797e-01,1.553550347031551482e-02
3.413442000000000007e+03,1.921270987979255551e-01,1.137057128595087008e-02
3.415370999999999640e+03,1.903397872874208474e-01,9.389942442308729653e-03
3.417299000000000433e+03,1.885676024198517098e-01,1.684059888490097023e-02
3.419228000000000065e+03,1.868087058291756364e-01,9.800800228606298958e-03
3.421155999999999949e+03,1.850649211510493330e-01,4.740297861065556617e-03
3.423085000000000036e+03,1.833344394802125521e-01,8.948878320346409510e-03
3.425012999999999920e+03,1.816190549915326358e-01,6.413563834189339730e-03
3.426942000000000007e+03,1.799169882405244891e-01,1.520104024153923206e-03
3.428869999999999891e+03,1.782300039412909598e-01,5.869716468774210938e-03
3.430799000000000433e+03,1.765563521101185529e-01,5.035446585128333652e-03
3.432727000000000317e+03,1.748977680003314106e-01,2.550744973386365189e-04
3.434655999999999949e+03,1.732525310889911907e-01,-9.117395953856188839e-03
3.436584000000000287e+03,1.716223471686504354e-01,-1.030175071012351395e-02
3.438512999999999920e+03,1.700055251771424025e-01,-1.197510265679380126e-03
3.440440999999999804e+03,1.684037414462480342e-01,3.651308743481962438e-04
3.442369999999999891e+03,1.668153343745757411e-01,-1.554972393655162932e-02
3.444297999999999774e+03,1.652419508331242071e-01,-1.733514747804498768e-02
3.446227000000000317e+03,1.636819586812841010e-01,-7.094819818283415458e-03
3.448155000000000200e+03,1.621369753292789540e-01,8.877936133908637117e-03
3.450084000000000287e+03,1.606053980972745876e-01,1.723616760635993117e-02
3.452012000000000171e+03,1.590888149347122749e-01,1.809478245578155509e-02
3.453940999999999804e+03,1.575856526225436482e-01,6.991234609515561971e-03
3.455869000000000142e+03,1.560974696494241698e-01,-1.610051196488715419e-03
3.457797999999999774e+03,1.546227222570912829e-01,-3.481063356812086340e-03
3.459725999999999658e+03,1.531629394734217442e-01,2.954488299178770205e-03
3.461655000000000200e+03,1.517166070009174916e-01,1.337472571110520647e-02
3.463583000000000084e+03,1.502852244066907872e-01,1.387227792322498487e-02
3.465512000000000171e+03,1.488673068540258271e-01,1.476643033143565376e-02
3.467440000000000055e+03,1.474643244492419569e-01,8.983951412826929328e-03
3.469369000000000142e+03,1.460748218164091838e-01,1.423780233916538407e-03
3.471297000000000025e+03,1.447002396010717007e-01,1.171168956947798989e-02
3.473225999999999658e+03,1.433391518880746673e-01,1.577547998517792038e-02
3.475154000000000451e+03,1.419929698621835712e-01,1.852427151712676689e-02
3.477083000000000084e+03,1.406602970690151722e-01,1.865284365791808341e-02
3.479010999999999967e+03,1.393425152325704630e-01,2.263232167330064826e-02
3.480940000000000055e+03,1.380382573592413564e-01,2.669986006853131144e-02
3.482867999999999938e+03,1.367488757122394816e-01,3.517936287117162664e-02
3.484797000000000025e+03,1.354730327587390093e-01,3.799388243231405227e-02
3.486724999999999909e+03,1.342120513011835214e-01,3.801441654597370601e-02
3.488654000000000451e+03,1.329646232675187889e-01,3.910061438392498090e-02
3.490582000000000335e+03,1.317320419994132408e-01,3.286814439387608644e-02
3.492510999999999967e+03,1.305130288855806953e-01,1.455034483296513415e-02
3.494439000000000306e+03,1.293088478069144287e-01,8.565336722442751238e-03
3.496367999999999938e+03,1.281182496129176229e-01,1.893394050823804520e-02
3.498295999999999822e+03,1.269424687237012961e-01,4.089257321478889651e-02
3.500224999999999909e+03,1.257802854495366773e-01,4.876677885614855157e-02
3.502152999999999793e+03,1.246329047497631848e-01,5.397566934156916574e-02
3.504082000000000335e+03,1.234991363954343058e-01,5.310198196430437889e-02
3.506010000000000218e+03,1.223801558851072002e-01,4.861238838329873246e-02
3.507939000000000306e+03,1.212748024506105082e-01,4.689388347669565249e-02
3.509867000000000189e+03,1.201842221297262370e-01,5.055575923094490776e-02
3.511795999999999822e+03,1.191072836150652847e-01,6.606233427869012687e-02
3.513724000000000160e+03,1.180451034836274005e-01,6.363709595719235779e-02
3.515652999999999793e+03,1.169965798888021880e-01,6.262038190057328535e-02
3.517580999999999676e+03,1.159627999468071380e-01,7.255257749960453140e-02
3.519510000000000218e+03,1.149426912718141125e-01,7.588116706928582644e-02
3.521438000000000102e+03,1.139373115192654495e-01,7.127890469695064013e-02
3.523367000000000189e+03,1.129456177641081638e-01,6.358001131324453326e-02
3.525295000000000073e+03,1.119686382010023351e-01,7.705745685957499092e-02
3.527224000000000160e+03,1.110053593656772364e-01,9.360973849079989861e-02
3.529152000000000044e+03,1.100567799920177947e-01,9.363007928104716271e-02
3.531080999999999676e+03,1.091219160765319884e-01,8.085385279578805040e-02
3.533009000000000015e+03,1.082017368923153811e-01,8.685418109463682867e-02
3.534938000000000102e+03,1.072952878966582091e-01,8.743164593372387827e-02
3.536865999999999985e+03,1.064035089018915414e-01,7.439798224442695229e-02
3.538795000000000073e+03,1.055254748260701092e-01,7.804954847309009125e-02
3.540722999999999956e+03,1.046620960207462758e-01,8.667247993451931976e-02
3.542652000000000044e+03,1.038124768647570306e-01,9.727792388081635266e-02
3.544579999999999927e+03,1.029774982488795843e-01,8.706537220778365338e-02
3.546509000000000015e+03,1.021562940127260788e-01,7.524165566108553804e-02
3.548436999999999898e+03,1.013497155862914667e-01,7.916938972591713863e-02
3.550365999999999985e+03,1.005569262699701483e-01,7.023431324540707621e-02
3.552294000000000324e+03,9.977874803298192319e-02,7.826505439013020649e-02
3.554222999999999956e+03,9.901437363649279177e-02,8.539662356760713280e-02
3.556150999999999840e+03,9.826459558895450641e-02,8.902804187609669739e-02
3.558079999999999927e+03,9.752863611230111474e-02,9.059904329124002231e-02
3.560007999999999811e+03,9.680725825420211095e-02,9.630923755194853442e-02
3.561936999999999898e+03,9.609971369738090630e-02,1.061211623510809332e-01
3.563864999999999782e+03,9.540673602873184223e-02,1.113686600570087393e-01
3.565794000000000324e+03,9.472760639174637731e-02,9.355291550946498447e-02
3.567722000000000207e+03,9.406302891254014753e-02,9.442532150684401770e-02
3.569650999999999840e+03,9.341231419538686964e-02,1.226622431205495189e-01
3.571579000000000178e+03,9.277613690562702686e-02,1.340905918921357909e-01
3.573507999999999811e+03,9.215383710830948871e-02,1.405460696950449062e-01
3.575435999999999694e+03,9.154606000799248022e-02,1.229068756863220813e-01
3.577364999999999782e+03,9.095217513050712910e-02,1.021792321388308444e-01
3.579292999999999665e+03,9.037279821963650761e-02,1.017101467943426485e-01
3.581222000000000207e+03,8.980732826199044894e-02,9.686555151433662303e-02
3.583150000000000091e+03,8.925635154056266174e-02,8.454979943800200459e-02
3.585079000000000178e+03,8.871929650274523738e-02,5.414650032856860307e-02
3.587007000000000062e+03,8.819671997076738990e-02,1.926646735448889203e-02
3.588935999999999694e+03,8.768807985278570527e-02,2.056541502139808131e-02
3.590864000000000033e+03,8.719390351025069208e-02,4.155912538070927198e-02
3.592792999999999665e+03,8.671367831210119448e-02,5.113161525733023183e-02
3.594720999999999549e+03,8.624790215900901558e-02,4.571761508237015548e-02
3.596650000000000091e+03,8.579609188069881043e-02,4.013028276981378539e-02
3.598577999999999975e+03,8.535871591705301853e-02,3.767297094221966347e-02
3.600507000000000062e+03,8.493532055857144769e-02,3.190158531281639398e-02
3.602434999999999945e+03,8.452634478437204280e-02,3.819313331441565040e-02
3.604364000000000033e+03,8.413136434572621170e-02,3.998885932622098238e-02
3.606291999999999916e+03,8.375078876097319380e-02,2.694725410948306532e-02
3.608220999999999549e+03,8.338422324215954973e-02,1.538278514553814702e-02
3.610149000000000342e+03,8.303204784684936612e-02,1.727736501428767113e-02
3.612077999999999975e+03,8.269389724786790907e-02,8.745058949708894858e-03
3.614005999999999858e+03,8.237012204200766519e-02,4.173214397880098403e-03
3.615934999999999945e+03,8.206038636286194787e-02,1.148760990927222281e-02
3.617862999999999829e+03,8.176501134644453828e-02,1.205698306175673196e-02
