wavenumber (/cm),baseline value (/cm),baseline-subtracted absorbance (/cm),
3.290019000000000233e+03,2.339657597774031927e-01,-3.275157922644211794e-15
3.291947000000000116e+03,2.337491173911327991e-01,-7.396878038704035596e-04
3.293875000000000000e+03,2.335264258599387688e-01,-4.714003523637044779e-05
3.295804000000000087e+03,2.332975649728155076e-01,1.568179346244702455e-03
3.297731999999999971e+03,2.330627720142519621e-01,1.275920210203229654e-03
3.299660999999999603e+03,2.328218034230840061e-01,1.133290099871675505e-03
3.301589000000000397e+03,2.325749090371473926e-01,-1.870549785331021564e-03
3.303518000000000029e+03,2.323218327419365181e-01,-5.122420158847951210e-03
3.305447000000000116e+03,2.320627010251286038e-01,-5.277340072894876055e-03
3.307375000000000000e+03,2.317976529293765964e-01,-3.686121007904941127e-03
3.309302999999999884e+03,2.315265556887009524e-01,-1.233233691483481831e-03
3.311231999999999971e+03,2.312492639854006882e-01,-7.071400095157165389e-04
3.313159999999999854e+03,2.309660653173537526e-01,3.833903765966761856e-03
3.315089000000000397e+03,2.306766659100087935e-01,6.615728586822300361e-03
3.317017000000000280e+03,2.303813658145923426e-01,3.558114785191357488e-03
3.318945999999999913e+03,2.300798587032044651e-01,5.582144697630353480e-03
3.320875000000000000e+03,2.297722961702177713e-01,1.032864678850847762e-02
3.322802999999999884e+03,2.294588423649823739e-01,7.076016191208622796e-03
3.324730999999999767e+03,2.291393394148251161e-01,6.933701240608491911e-03
3.326659999999999854e+03,2.288136168953478489e-01,8.048803880660926335e-03
3.328587999999999738e+03,2.284820125178210759e-01,1.163245648820770972e-02
3.330517000000000280e+03,2.281441822942991138e-01,1.466266575022096008e-02
3.332445000000000164e+03,2.278004764893992729e-01,1.399578259237538314e-02
3.334374000000000251e+03,2.274505385618343922e-01,1.420868233784094992e-02
3.336302000000000135e+03,2.270947313295650360e-01,1.430455758680543310e-02
3.338230999999999767e+03,2.267326856979554606e-01,1.263298132940576801e-02
3.340159000000000106e+03,2.263647770383165891e-01,1.217209110204514610e-02
3.342087999999999738e+03,2.259906237026623188e-01,1.127920161809820021e-02
3.344015999999999622e+03,2.256106136156521558e-01,1.274832903390726857e-02
3.345945000000000164e+03,2.252243525759514142e-01,1.343131290557592061e-02
3.347873000000000047e+03,2.248322410615735123e-01,1.514178892760570383e-02
3.349802000000000135e+03,2.244338723178298522e-01,2.261598082794230580e-02
3.351730000000000018e+03,2.240296593760788824e-01,3.066186945372478823e-02
3.353659000000000106e+03,2.236191829282923038e-01,3.088630478232751164e-02
3.355586999999999989e+03,2.232028685591700423e-01,3.333709124914657762e-02
3.357515999999999622e+03,2.227802844073387689e-01,3.399564695763274136e-02
3.359444000000000415e+03,2.223518686108469922e-01,3.193921192710330592e-02
3.361373000000000047e+03,2.219171767549710239e-01,3.296479882085218138e-02
3.363302000000000135e+03,2.214764294774962394e-01,3.201839197867945019e-02
3.365230000000000018e+03,2.210298599711872924e-01,2.533750747354918120e-02
3.367157999999999902e+03,2.205772413199564852e-01,1.824576068962774356e-02
3.369086999999999989e+03,2.201183340559911272e-01,1.483815071754429615e-02
3.371014999999999873e+03,2.196536139773890284e-01,1.031129559132332174e-02
3.372944000000000415e+03,2.191825990093789756e-01,4.214139280928674847e-03
3.374872000000000298e+03,2.187057775034055851e-01,1.881009940438160832e-04
3.376800999999999931e+03,2.182226548313526138e-01,-2.718123518348769529e-04
3.378729000000000269e+03,2.177337318980097081e-01,7.016522417337411888e-04
3.380657999999999902e+03,2.172385015219120419e-01,-8.461688584399662538e-04
3.382585999999999785e+03,2.167374771611978446e-01,-3.488544992717446114e-04
3.384514999999999873e+03,2.162301390810554835e-01,-2.662354261145194467e-03
3.386442999999999756e+03,2.157170132929717710e-01,-4.928328797686509777e-03
3.388372000000000298e+03,2.151975675087847151e-01,-1.098547908708119580e-02
3.390300000000000182e+03,2.146723402933314873e-01,-1.476717720784687105e-02
3.392229000000000269e+03,2.141407868050997365e-01,-1.274953622541191711e-02
3.394157000000000153e+03,2.136034581622734407e-01,-1.003041750683980604e-02
3.396085999999999785e+03,2.130597969699987715e-01,-9.454834842931136851e-03
3.398014000000000124e+03,2.125103668998047368e-01,-9.487643140336510239e-03
3.399942999999999756e+03,2.119545980034835964e-01,-9.694743311877418446e-03
3.401870999999999640e+03,2.113930665059182701e-01,-1.376259811822305723e-02
3.403800000000000182e+03,2.108251899055542111e-01,-1.626830321518474287e-02
3.405728000000000065e+03,2.102515569806175932e-01,-1.230450179434455782e-02
3.407657000000000153e+03,2.096715726762088394e-01,-7.268187299798223311e-03
3.409585000000000036e+03,2.090858383239044826e-01,-1.103536684454137218e-02
3.411514000000000124e+03,2.084937463154510340e-01,-1.408100864347699988e-02
3.413442000000000007e+03,2.078959105357736092e-01,-9.479540153952525916e-03
3.415370999999999640e+03,2.072917108232772421e-01,-7.650730764535429440e-03
3.417299000000000433e+03,2.066817736162303021e-01,-7.405919542957828394e-03
3.419228000000000065e+03,2.060654661996874637e-01,-7.636110812456020636e-03
3.421155999999999949e+03,2.054434275652710085e-01,-5.798041879693627276e-03
3.423085000000000036e+03,2.048150124446852516e-01,-3.829929742567406148e-03
3.425012999999999920e+03,2.041808723828975047e-01,-4.032858779558445850e-03
3.426942000000000007e+03,2.035403495582670530e-01,-3.826251552392856414e-03
3.428869999999999891e+03,2.028941080691097909e-01,-3.604882531932418477e-03
3.430799000000000433e+03,2.022414775404346443e-01,-8.540750998465240773e-03
3.432727000000000317e+03,2.015831346239043143e-01,-4.567676284129962294e-03
3.434655999999999949e+03,2.009183963911862492e-01,-1.731968813508066862e-03
3.436584000000000287e+03,2.002479520472864039e-01,-7.035631750486215363e-03
3.438512999999999920e+03,1.995711061105236439e-01,-7.214636795328022156e-03
3.440440999999999804e+03,1.988885603392560597e-01,1.566553045838081637e-04
3.442369999999999891e+03,1.981996066984468285e-01,1.431789189634768977e-03
3.444297999999999774e+03,1.975049594998079527e-01,-5.386586805158910529e-04
3.446227000000000317e+03,1.968038981549540267e-01,-5.302661487772086790e-03
3.448155000000000200e+03,1.960971495289456357e-01,-6.384210898554509850e-03
3.450084000000000287e+03,1.953839804800487912e-01,-3.335209418060813835e-03
3.452012000000000171e+03,1.946651304266691085e-01,1.464178585542985633e-03
3.453940999999999804e+03,1.939398536737275691e-01,3.047470487657577554e-03
3.455869000000000142e+03,1.932089021929765948e-01,2.472501424274964332e-03
3.457797999999999774e+03,1.924715177359921370e-01,7.511091631761723786e-03
3.459725999999999658e+03,1.917284648278716475e-01,1.284998624648309162e-02
3.461655000000000200e+03,1.909789726668407184e-01,1.560110153319022031e-02
3.463583000000000084e+03,1.902238183313489372e-01,2.259176367514353911e-02
3.465512000000000171e+03,1.894622184662750897e-01,3.038049292652139632e-02
3.467440000000000055e+03,1.886949627034137933e-01,3.581763584350233787e-02
3.469369000000000142e+03,1.879212551342952509e-01,3.694023814132690875e-02
3.471297000000000025e+03,1.871418979440626629e-01,4.161409216259998045e-02
3.473225999999999658e+03,1.863560826709012019e-01,5.065195566578145625e-02
3.475154000000000451e+03,1.855646240532973223e-01,5.944758803512445455e-02
3.477083000000000084e+03,1.847667010760893902e-01,6.437103273129968217e-02
3.479010999999999967e+03,1.839631410311177717e-01,7.188428515530981278e-02
3.480940000000000055e+03,1.831531103498669211e-01,7.828034149740475955e-02
3.482867999999999938e+03,1.823374488775222346e-01,8.589929559612136112e-02
3.484797000000000025e+03,1.815153104922284655e-01,8.784595090829711017e-02
3.486724999999999909e+03,1.806875475925124874e-01,8.890071952759875940e-02
3.488654000000000451e+03,1.798533015031722471e-01,8.973658874261530860e-02
3.490582000000000335e+03,1.790134371760885301e-01,9.178900524159577801e-02
3.492510999999999967e+03,1.781670833827053713e-01,9.448108480403144549e-02
3.494439000000000306e+03,1.773151176282485864e-01,9.517444799240376563e-02
3.496367999999999938e+03,1.764566561308207326e-01,9.811097410569197264e-02
3.498295999999999822e+03,1.755925889489962088e-01,1.026683478263941685e-01
3.500224999999999909e+03,1.747220197475236603e-01,1.083549627845524221e-01
3.502152999999999793e+03,1.738458511383260685e-01,1.202560193207866113e-01
3.504082000000000335e+03,1.729631742328106014e-01,1.335801091185574996e-01
3.506010000000000218e+03,1.720749041962434944e-01,1.392698167807236431e-01
3.507939000000000306e+03,1.711801195866815561e-01,1.452133724522735592e-01
3.509867000000000189e+03,1.702797481227467102e-01,1.593946992416063746e-01
3.511795999999999822e+03,1.693728558091400771e-01,1.773925638847848041e-01
3.513724000000000160e+03,1.684603829178321632e-01,1.942549517552240590e-01
3.515652999999999793e+03,1.675413829001826116e-01,2.111656042693955126e-01
3.517580999999999676e+03,1.666168085815069588e-01,2.340974440077650542e-01
3.519510000000000218e+03,1.656857008598109360e-01,2.551460351117456615e-01
3.521438000000000102e+03,1.647490251137639916e-01,2.685112160363364864e-01
3.523367000000000189e+03,1.638058096880250503e-01,2.723134514033337950e-01
3.525295000000000073e+03,1.628570325146068143e-01,2.730929597562233302e-01
3.527224000000000160e+03,1.619017093848231781e-01,2.662766025644734413e-01
3.529152000000000044e+03,1.609408307840354269e-01,2.565573142151916231e-01
3.531080999999999676e+03,1.599733999502088722e-01,2.498883252005100197e-01
3.533009000000000015e+03,1.590004199220480530e-01,2.454184237941368640e-01
3.534938000000000102e+03,1.580208813841785798e-01,2.367241333012442550e-01
3.536865999999999985e+03,1.570357999286482453e-01,2.400565636515032408e-01
3.538795000000000073e+03,1.560441536867323009e-01,2.530376982223727089e-01
3.540722999999999956e+03,1.550469708038324512e-01,2.702730941211946569e-01
3.542652000000000044e+03,1.540432168578718120e-01,2.822375838841283957e-01
3.544579999999999927e+03,1.530339325476006707e-01,2.857232942262439290e-01
3.546509000000000015e+03,1.520180708975971129e-01,2.776017312356537370e-01
3.548436999999999898e+03,1.509966851599564563e-01,2.661899742928182655e-01
3.550365999999999985e+03,1.499687158059064274e-01,2.564226120654802821e-01
3.552294000000000324e+03,1.489352286408962556e-01,2.568107135449130829e-01
3.554222999999999956e+03,1.478951515828033081e-01,2.674380529310320109e-01
3.556150999999999840e+03,1.468495629904218447e-01,2.935006456971651079e-01
3.558079999999999927e+03,1.457973782282842024e-01,3.314913062670010180e-01
3.560007999999999811e+03,1.447396882085332237e-01,3.691288386116862164e-01
3.561936999999999898e+03,1.436753957423508865e-01,3.855772708212601430e-01
3.563864999999999782e+03,1.426056042952268399e-01,3.855843014089006537e-01
3.565794000000000324e+03,1.415292041250015842e-01,3.692229213967175294e-01
3.567722000000000207e+03,1.404473112505080223e-01,3.735394718689848403e-01
3.569650999999999840e+03,1.393588033762380718e-01,4.114713867613413179e-01
3.571579000000000178e+03,1.382648090743749947e-01,4.411316200491370854e-01
3.573507999999999811e+03,1.371641934960603493e-01,4.364624103066914174e-01
3.575435999999999694e+03,1.360580977668277569e-01,3.886498169031367134e-01
3.577364999999999782e+03,1.349453744844666403e-01,3.111391053424000241e-01
3.579292999999999665e+03,1.338271773278645327e-01,2.392630220847186684e-01
3.581222000000000207e+03,1.327023463414604976e-01,1.852124009146843275e-01
3.583150000000000091e+03,1.315720477574870984e-01,1.502248296578784781e-01
3.585079000000000178e+03,1.304351090670383684e-01,1.196493707598282330e-01
3.587007000000000062e+03,1.292927090556936776e-01,8.591304144670247611e-02
3.588935999999999694e+03,1.281436626612002527e-01,6.965823871459203565e-02
3.590864000000000033e+03,1.269891612224860467e-01,7.094676395914950584e-02
3.592792999999999665e+03,1.258280071239497033e-01,7.481962002089498354e-02
3.594720999999999549e+03,1.246614042578642056e-01,7.742647640375283080e-02
3.596650000000000091e+03,1.234881424552831675e-01,7.814418093318503677e-02
3.598577999999999975e+03,1.223094381618263782e-01,7.764720119510676311e-02
3.600507000000000062e+03,1.211240686552006451e-01,7.302093057188235870e-02
3.602434999999999945e+03,1.199332629343761170e-01,7.081731675336550014e-02
3.604364000000000033e+03,1.187357857237056891e-01,6.665971589942004671e-02
3.606291999999999916e+03,1.175328785755080929e-01,5.977512884449492914e-02
3.608220999999999549e+03,1.163232936607947465e-01,4.006185087468211448e-02
3.610149000000000342e+03,1.151082850852276351e-01,1.610550375385105815e-02
3.612077999999999975e+03,1.138865924664695939e-01,1.605214613450034467e-03
3.614005999999999858e+03,1.126594824635311909e-01,1.026945114147082005e-03
3.615934999999999945e+03,1.114256821407302311e-01,3.841979012461915755e-03
3.617862999999999829e+03,1.101864707104223129e-01,-2.752015807267471637e-04
