wavenumber (/cm),baseline value (/cm),baseline-subtracted absorbance (/cm),
3.290019000000000233e+03,4.609698974836984320e-01,-7.938094626069869264e-15
3.291947000000000116e+03,4.601864934483170799e-01,9.373648927826772059e-04
3.293875000000000000e+03,4.593931167517517622e-01,-4.358008151254533225e-04
3.295804000000000087e+03,4.585893481314169406e-01,4.581388122077922898e-03
3.297731999999999971e+03,4.577760209399475144e-01,4.297697606184758268e-03
3.299660999999999603e+03,4.569522914769397204e-01,9.188175631347772487e-04
3.301589000000000397e+03,4.561190137905661857e-01,2.798134392099249634e-03
3.303518000000000029e+03,4.552753234848854191e-01,6.279848928907705297e-03
3.305447000000000116e+03,4.544216501702553757e-01,1.821965859567564738e-03
3.307375000000000000e+03,4.535584441552504842e-01,1.447245306767652728e-04
3.309302999999999884e+03,4.526852654790634034e-01,9.152005041612176761e-04
3.311231999999999971e+03,4.518016534880366919e-01,2.887908487732182561e-03
3.313159999999999854e+03,4.509085243169437263e-01,-2.177507847908599636e-04
3.315089000000000397e+03,4.500049514832458186e-01,-2.136079162649406893e-03
3.317017000000000280e+03,4.490918718172469681e-01,4.744841939366417627e-04
3.318945999999999913e+03,4.481683381408760880e-01,4.166237814389461835e-03
3.320875000000000000e+03,4.472348214555541546e-01,4.696119830559564168e-03
3.322802999999999884e+03,4.462918134609257237e-01,9.385073771133900511e-03
3.324730999999999767e+03,4.453388328051151035e-01,7.477383411101212740e-03
3.326659999999999854e+03,4.443753774433965020e-01,6.950810813826258094e-03
3.328587999999999738e+03,4.434024462926817733e-01,6.950862188212891812e-03
3.330517000000000280e+03,4.424190300882919757e-01,9.252544935007211979e-03
3.332445000000000164e+03,4.414261484426695858e-01,1.006136320691103370e-02
3.334374000000000251e+03,4.404227713956050394e-01,1.018682785882180086e-02
3.336302000000000135e+03,4.394099392550785410e-01,8.402921881920655256e-03
3.338230999999999767e+03,4.383866013653410221e-01,1.143818894220777205e-02
3.340159000000000106e+03,4.373538187299104152e-01,1.000619990941858939e-02
3.342087999999999738e+03,4.363105199974981474e-01,9.917532192623090825e-03
3.344015999999999622e+03,4.352577868671616557e-01,1.133885805362117027e-02
3.345945000000000164e+03,4.341945272920781917e-01,1.407126953923582002e-02
3.347873000000000047e+03,4.331218436668322624e-01,1.538346854192823576e-02
3.349802000000000135e+03,4.320386232490776024e-01,2.058160042287021652e-02
3.351730000000000018e+03,4.309459891289257882e-01,2.243509195215526164e-02
3.353659000000000106e+03,4.298428078684981557e-01,2.395952204762491489e-02
3.355586999999999989e+03,4.287302232534440094e-01,2.186120265522323303e-02
3.357515999999999622e+03,4.276070811503416280e-01,3.138061689252874542e-02
3.359444000000000415e+03,4.264745460403780442e-01,3.525546327928646972e-02
3.361373000000000047e+03,4.253314430946062430e-01,3.040108253447110220e-02
3.363302000000000135e+03,4.241783571398816122e-01,2.089349747335239593e-02
3.365230000000000018e+03,4.230158937012902243e-01,1.552436724931555156e-02
3.367157999999999902e+03,4.218434576015166471e-01,1.043641192318039979e-02
3.369086999999999989e+03,4.206604329703953482e-01,5.042362928952270895e-03
3.371014999999999873e+03,4.194680463757194389e-01,-2.608586916260036137e-03
3.372944000000000415e+03,4.182650609019251675e-01,-7.044278050107821709e-03
3.374872000000000298e+03,4.170527238123380442e-01,-1.488263993535748897e-02
3.376800999999999931e+03,4.158297774958743531e-01,-1.461356127965801610e-02
3.378729000000000269e+03,4.145974899113848977e-01,-1.437847779582107632e-02
3.380657999999999902e+03,4.133545827522429050e-01,-1.606492757982908026e-02
3.382585999999999785e+03,4.121023446728493411e-01,-1.731119835411681906e-02
3.384514999999999873e+03,4.108394766710343760e-01,-1.977610295248827255e-02
3.386442999999999756e+03,4.095672880967349272e-01,-2.324342975563514768e-02
3.388372000000000298e+03,4.082844592522487659e-01,-1.730691964367464530e-02
3.390300000000000182e+03,4.069923201830398796e-01,-1.738393248499697785e-02
3.392229000000000269e+03,4.056895304958825221e-01,-2.095448855739229232e-02
3.394157000000000153e+03,4.043774409317695273e-01,-2.006057233903885129e-02
3.396085999999999785e+03,4.030546904019391974e-01,-1.832141919970237121e-02
3.398014000000000124e+03,4.017226503429185414e-01,-2.462367550601257671e-02
3.399942999999999756e+03,4.003799389704170153e-01,-2.408059134693146808e-02
3.401870999999999640e+03,3.990279484164904744e-01,-2.410455605861533401e-02
3.403800000000000182e+03,3.976652762013141995e-01,-2.278009446785661529e-02
3.405728000000000065e+03,3.962933351524817738e-01,-2.161588874055259124e-02
3.407657000000000153e+03,3.949107020946325264e-01,-1.895552968083930034e-02
3.409585000000000036e+03,3.935188105508977685e-01,-2.098078631977012831e-02
3.411514000000000124e+03,3.921162166503755486e-01,-1.904007499147525317e-02
3.413442000000000007e+03,3.907043746117313532e-01,-1.142133640110692960e-02
3.415370999999999640e+03,3.892818198685379372e-01,-7.797104118304865050e-03
3.417299000000000433e+03,3.878500273349896332e-01,-1.419681205073991537e-02
3.419228000000000065e+03,3.864075117491196920e-01,-1.396920792805728118e-02
3.421155999999999949e+03,3.849557687206637269e-01,-9.749804135388673298e-03
3.423085000000000036e+03,3.834932922921243659e-01,-3.512304407688182639e-03
3.425012999999999920e+03,3.820215987687660686e-01,-7.453446308108846452e-05
3.426942000000000007e+03,3.805391614975519587e-01,1.533718278776075028e-03
3.428869999999999891e+03,3.790475174792842239e-01,2.179136761163047442e-03
3.430799000000000433e+03,3.775451193653971416e-01,5.546399739915053306e-03
3.432727000000000317e+03,3.760335248522270746e-01,5.216055762870708268e-03
3.434655999999999949e+03,3.745111658956670198e-01,9.014090395106533204e-03
3.436584000000000287e+03,3.729796208875892916e-01,1.850295235430288177e-03
3.438512999999999920e+03,3.714373010883580406e-01,-2.982408264499636363e-03
3.440440999999999804e+03,3.698858055853744276e-01,3.557601182601621836e-04
3.442369999999999891e+03,3.683235249434702041e-01,4.554294255038671135e-03
3.444297999999999774e+03,3.667520789455789298e-01,5.976532424411817868e-03
3.446227000000000317e+03,3.651698374609999576e-01,6.421308857732455078e-03
3.448155000000000200e+03,3.635784409682063512e-01,5.957812526667882747e-03
3.450084000000000287e+03,3.619762386409561827e-01,1.929151531990119794e-02
3.452012000000000171e+03,3.603648916532549151e-01,2.510659017339927912e-02
3.453940999999999804e+03,3.587427284833317742e-01,3.051570581303347796e-02
3.455869000000000142e+03,3.571114310007228454e-01,3.686107598902549354e-02
3.457797999999999774e+03,3.554693069881285084e-01,4.481783187487237141e-02
3.459725999999999658e+03,3.538180590106136947e-01,4.164550110122228199e-02
3.461655000000000200e+03,3.521559741553428324e-01,3.726238558370648102e-02
3.463583000000000084e+03,3.504847756829274630e-01,4.455949272340992140e-02
3.465512000000000171e+03,3.488027299849854046e-01,5.604023366832305841e-02
3.467440000000000055e+03,3.471115810176588212e-01,6.947061842316132330e-02
3.469369000000000142e+03,3.454095744770437904e-01,8.422751778763465369e-02
3.471297000000000025e+03,3.436984750148130985e-01,9.186350075405919080e-02
3.473225999999999658e+03,3.419765076315268715e-01,9.756710839829590975e-02
3.475154000000000451e+03,3.402454576743902948e-01,1.042916345902881736e-01
3.477083000000000084e+03,3.385035294484275425e-01,1.174020623502676774e-01
3.479010999999999967e+03,3.367525289963886337e-01,1.280625688600885437e-01
3.480940000000000055e+03,3.349906399277546853e-01,1.324719882176321195e-01
3.482867999999999938e+03,3.332196889808063389e-01,1.347010938710109795e-01
3.484797000000000025e+03,3.314378390694994181e-01,1.403603901942471199e-01
3.486724999999999909e+03,3.296469376276451868e-01,1.451306019809289194e-01
3.488654000000000451e+03,3.278451268736670698e-01,1.588503064907318962e-01
3.490582000000000335e+03,3.260342749369069537e-01,1.620164240379299847e-01
3.492510999999999967e+03,3.242125033402558643e-01,1.601990530437142346e-01
3.494439000000000306e+03,3.223817009085880869e-01,1.588692776561836939e-01
3.496367999999999938e+03,3.205399684692658013e-01,1.647445608876773604e-01
3.498295999999999822e+03,3.186892155426939155e-01,1.682390230407170839e-01
3.500224999999999909e+03,3.168275222606951047e-01,1.776477806284008643e-01
3.502152999999999793e+03,3.149568188392173340e-01,1.879703945810995425e-01
3.504082000000000335e+03,3.130751647145491035e-01,2.032550309984051395e-01
3.506010000000000218e+03,3.111845107981654479e-01,2.259424230322166771e-01
3.507939000000000306e+03,3.092828958308206921e-01,2.393547556137274324e-01
3.509867000000000189e+03,3.073722914195311517e-01,2.526294793167223052e-01
3.511795999999999822e+03,3.054507156095169762e-01,2.770451837381064930e-01
3.513724000000000160e+03,3.035201607033197746e-01,2.989900909276215213e-01
3.515652999999999793e+03,3.015786240506326266e-01,3.306856816343628491e-01
3.517580999999999676e+03,2.996281186495313165e-01,3.664824125713448399e-01
3.519510000000000218e+03,2.976666211541711959e-01,3.906358951552415526e-01
3.521438000000000102e+03,2.956961652581640010e-01,4.029884572954240962e-01
3.523367000000000189e+03,2.937147069201291316e-01,4.093221989512594305e-01
3.525295000000000073e+03,2.917243005292160518e-01,4.127534254726479279e-01
3.527224000000000160e+03,2.897228813485082100e-01,4.004603432554059150e-01
3.529152000000000044e+03,2.877125244626927980e-01,3.778621260498886691e-01
3.531080999999999676e+03,2.856911444393102073e-01,3.770568518328238916e-01
3.533009000000000015e+03,2.836608370585871342e-01,3.734972244511982620e-01
3.534938000000000102e+03,2.816194961925333473e-01,3.617771487282495091e-01
3.536865999999999985e+03,2.795692383169026130e-01,3.612439956066761937e-01
3.538795000000000073e+03,2.775079366081758536e-01,3.828225386947132769e-01
3.540722999999999956e+03,2.754377282376410108e-01,4.116774628154811211e-01
3.542652000000000044e+03,2.733564656862412789e-01,4.263989863174866279e-01
3.544579999999999927e+03,2.712663068208023276e-01,4.152365822751904467e-01
3.546509000000000015e+03,2.691650834267296233e-01,4.051840312051435689e-01
3.548436999999999898e+03,2.670549740663830107e-01,4.017582598571955987e-01
3.550365999999999985e+03,2.649337898296373339e-01,3.953584748488341294e-01
3.552294000000000324e+03,2.628037299743830602e-01,3.840290752446289257e-01
3.554222999999999956e+03,2.606625848949661872e-01,4.127424477238594847e-01
3.556150999999999840e+03,2.585125745448060286e-01,4.590425046723420888e-01
3.558079999999999927e+03,2.563514686227144068e-01,5.035288668852073712e-01
3.560007999999999811e+03,2.541815077776536924e-01,5.377128072270060954e-01
3.561936999999999898e+03,2.520004410128890981e-01,5.526748618762067355e-01
3.563864999999999782e+03,2.498105296729189462e-01,5.348610453503801487e-01
3.565794000000000324e+03,2.476095020654796031e-01,4.974805258935137697e-01
3.567722000000000207e+03,2.453996402306035662e-01,4.896717483994057485e-01
3.569650999999999840e+03,2.431786517804948033e-01,5.631555513881911779e-01
3.571579000000000178e+03,2.409488394507146580e-01,6.205167709873096182e-01
3.573507999999999811e+03,2.387078901579311463e-01,6.148024546696548853e-01
3.575435999999999694e+03,2.364581273332451161e-01,5.399198782585534762e-01
3.577364999999999782e+03,2.341972171977904082e-01,4.408518042374378609e-01
3.579292999999999665e+03,2.319275038781967169e-01,3.478108931395107462e-01
3.581222000000000207e+03,2.296466329000654838e-01,2.782923232975114125e-01
3.583150000000000091e+03,2.273569690855694603e-01,2.199989489013829957e-01
3.585079000000000178e+03,2.250561372647688074e-01,1.700298832384931624e-01
3.587007000000000062e+03,2.227465229553615700e-01,1.108172235497642544e-01
3.588935999999999694e+03,2.204257302918861683e-01,8.810716812377078488e-02
3.590864000000000033e+03,2.180961654875765987e-01,9.604558660934797709e-02
3.592792999999999665e+03,2.157554119814317772e-01,9.317208102881985310e-02
3.594720999999999549e+03,2.134058966822145464e-01,9.315076687789741738e-02
3.596650000000000091e+03,2.110451823333931998e-01,1.066273246563552157e-01
3.598577999999999975e+03,2.086757165392718605e-01,1.011856068530860298e-01
3.600507000000000062e+03,2.062950413477793177e-01,9.335174336797097405e-02
3.602434999999999945e+03,2.039056250587503172e-01,1.024491745684630861e-01
3.604364000000000033e+03,2.015049890245848019e-01,1.112079653090592424e-01
3.606291999999999916e+03,1.990956222406499165e-01,8.975871140333885334e-02
3.608220999999999549e+03,1.966750253638132051e-01,6.358965310776182323e-02
3.610149000000000342e+03,1.942457080849724349e-01,5.783733012565200893e-02
3.612077999999999975e+03,1.918051503654591983e-01,4.529130816203380538e-02
3.614005999999999858e+03,1.893558825917160959e-01,3.729901023214216016e-02
3.615934999999999945e+03,1.868953640295316632e-01,3.521824268062673235e-02
3.617862999999999829e+03,1.844261457608808996e-01,1.303061099587587979e-02
