wavenumber (/cm),baseline value (/cm),baseline-subtracted absorbance (/cm),
3.290019000000000233e+03,1.314827586206845922e-01,4.440892098500626162e-15
3.291947000000000116e+03,1.303146645242225787e-01,7.489622521442029779e-03
3.293875000000000000e+03,1.291542308183366572e-01,1.694362565882912008e-02
3.295804000000000087e+03,1.280008615792134208e-01,2.503921297810229873e-02
3.297731999999999971e+03,1.268557526277298564e-01,1.591032379351808856e-02
3.299660999999999603e+03,1.257177160915219361e-01,1.277622612655626710e-02
3.301589000000000397e+03,1.245879318944282943e-01,-2.076895831528702274e-04
3.303518000000000029e+03,1.234652280611463482e-01,-1.001508826618024983e-02
3.305447000000000116e+03,1.223501925669623347e-01,1.385390808541320240e-02
3.307375000000000000e+03,1.212433974880831045e-01,1.645930521461824725e-02
3.309302999999999884e+03,1.201442627997817425e-01,1.840280150590256625e-02
3.311231999999999971e+03,1.190522243723339813e-01,2.791049696969771787e-02
3.313159999999999854e+03,1.179684144384296474e-01,2.936336561748742469e-02
3.315089000000000397e+03,1.168917087139025313e-01,1.324622232057937055e-02
3.317017000000000280e+03,1.158232235343916727e-01,-1.244111729021746271e-02
3.318945999999999913e+03,1.147618505127852018e-01,1.051773942197531397e-02
3.320875000000000000e+03,1.137081458302819925e-01,2.669073580997860518e-02
3.322802999999999884e+03,1.126626497689802164e-01,2.276419086475556242e-02
3.324730999999999767e+03,1.116248140982634141e-01,1.582066586445662892e-02
3.326659999999999854e+03,1.105941064824929043e-01,1.733226816801813897e-02
3.328587999999999738e+03,1.095715955661695773e-01,2.053651254193855635e-02
3.330517000000000280e+03,1.085562206533197127e-01,1.293585763186211324e-02
3.332445000000000164e+03,1.075490344913934138e-01,1.177342590003149780e-02
3.334374000000000251e+03,1.065489922814588652e-01,1.226181852935059879e-02
3.336302000000000135e+03,1.055571308739295944e-01,1.130027825934032393e-02
3.338230999999999767e+03,1.045724213669156910e-01,5.177811624696104786e-03
3.340159000000000106e+03,1.035958847137781191e-01,1.459101306724441827e-03
3.342087999999999738e+03,1.026265079096919663e-01,2.603146040344750389e-02
3.344015999999999622e+03,1.016652960109460935e-01,3.475874872344153488e-02
3.345945000000000164e+03,1.007112519097734804e-01,2.277616654316183542e-02
3.347873000000000047e+03,9.976536476542996468e-02,5.318512214997461740e-03
3.349802000000000135e+03,9.882665336717622040e-02,-2.306616088518786967e-03
3.351730000000000018e+03,9.789609097722440367e-02,2.440586615231765677e-02
3.353659000000000106e+03,9.697271228189308090e-02,5.318292611512376311e-02
3.355586999999999989e+03,9.605747464633651589e-02,5.988660736671036489e-02
3.357515999999999622e+03,9.514942865392406190e-02,7.298850238055809569e-02
3.359444000000000415e+03,9.424951577276274861e-02,6.803752989359246328e-02
3.361373000000000047e+03,9.335680248326916342e-02,5.825456750741064837e-02
3.363302000000000135e+03,9.247175753287883992e-02,3.899888552397001718e-02
3.365230000000000018e+03,9.159483376993016179e-02,1.967357256744151073e-02
3.367157999999999902e+03,9.072557039755757557e-02,1.251394497988833621e-02
3.369086999999999989e+03,8.986352251390350432e-02,8.282796218622046069e-03
3.371014999999999873e+03,8.900958389593149889e-02,-2.757952954646647470e-03
3.372944000000000415e+03,8.816286871519274371e-02,8.837296072670142166e-04
3.374872000000000298e+03,8.732425485161421364e-02,2.549307972434000646e-02
3.376800999999999931e+03,8.649287237380143267e-02,4.193210432703597945e-02
3.378729000000000269e+03,8.566958326461637796e-02,3.675352950332300139e-02
3.380657999999999902e+03,8.485353348971891307e-02,2.576529223255352719e-02
3.382585999999999785e+03,8.404556913493088643e-02,8.249864229467718246e-03
3.384514999999999873e+03,8.324485206295406670e-02,2.002728214021498587e-02
3.386442999999999756e+03,8.245221246256129177e-02,2.897276423827754854e-02
3.388372000000000298e+03,8.166682809350334082e-02,3.055870778720404246e-02
3.390300000000000182e+03,8.088951324750581762e-02,2.162306829955795706e-02
3.392229000000000269e+03,8.011946158136673546e-02,2.271371642422348458e-02
3.394157000000000153e+03,7.935747148976624032e-02,3.500599542542470743e-02
3.396085999999999785e+03,7.860275252654780331e-02,3.546341709134548381e-02
3.398014000000000124e+03,7.785608718934078354e-02,2.612900134747242475e-02
3.399942999999999756e+03,7.711670092904121532e-02,1.843875107468662122e-02
3.401870999999999640e+03,7.638536034622944726e-02,8.545674136528624842e-03
3.403800000000000182e+03,7.566130678885052419e-02,1.101064102102711217e-02
3.405728000000000065e+03,7.494529096043400784e-02,1.177418713835276520e-02
3.407657000000000153e+03,7.423657010597395356e-02,3.428812700492933629e-02
3.409585000000000036e+03,7.353587903195446529e-02,6.805498769684348304e-02
3.411514000000000124e+03,7.284249088041150344e-02,5.907363213915939326e-02
3.413442000000000007e+03,7.215712456078904324e-02,2.785965083529617914e-02
3.415370999999999640e+03,7.147906911216672654e-02,2.813509677786196761e-02
3.417299000000000433e+03,7.080902754693596535e-02,3.555816723405147428e-02
3.419228000000000065e+03,7.014630480123429379e-02,4.275677068804650816e-02
3.421155999999999949e+03,6.949158799040056067e-02,4.192313707949590906e-02
3.423085000000000036e+03,6.884419794761775790e-02,2.373548518378765237e-02
3.425012999999999920e+03,6.820480589117927650e-02,6.028185721122625296e-03
3.426942000000000007e+03,6.757274855131534252e-02,1.556518248316685060e-02
3.428869999999999891e+03,6.694868124927388919e-02,3.226473906759430577e-02
3.430799000000000433e+03,6.633195661233060036e-02,4.459255410528228936e-02
3.432727000000000317e+03,6.572321406468084604e-02,2.761602172282984213e-02
3.434655999999999949e+03,6.512182213065820235e-02,3.182971561398151294e-02
3.436584000000000287e+03,6.452840433740369974e-02,3.749769072317299390e-02
3.438512999999999920e+03,6.394234510629992485e-02,2.047983569518940783e-02
3.440440999999999804e+03,6.336425206744245031e-02,1.315540835351569626e-04
3.442369999999999891e+03,6.279352553925754421e-02,-6.760977666582235202e-04
3.444297999999999774e+03,6.223075725479532139e-02,1.055582242833441597e-02
3.446227000000000317e+03,6.167536342952928408e-02,2.338055455742171773e-02
3.448155000000000200e+03,6.112791989946408933e-02,3.293731775197983325e-02
3.450084000000000287e+03,6.058785877711869716e-02,5.070198278858306651e-02
3.452012000000000171e+03,6.005574000144697777e-02,3.974109131262526518e-02
3.453940999999999804e+03,5.953101158202045440e-02,3.892844787743765522e-02
3.455869000000000142e+03,5.901421756074398672e-02,6.512837330598397756e-02
3.457797999999999774e+03,5.850482184423633214e-02,5.793786221913688195e-02
3.459725999999999658e+03,5.800335257735511618e-02,6.092768190540276407e-02
3.461655000000000200e+03,5.750928956376810675e-02,7.598931248655649284e-02
3.463583000000000084e+03,5.702314505128391886e-02,5.035523332709423983e-02
3.465512000000000171e+03,5.654441474061400186e-02,5.262799905248805032e-02
3.467440000000000055e+03,5.607359498252506569e-02,6.777356251980393154e-02
3.469369000000000142e+03,5.561019737477757019e-02,1.037933440977276689e-01
3.471297000000000025e+03,5.515470237108210938e-02,1.220214392878169463e-01
3.473225999999999658e+03,5.470663746625348267e-02,1.156773327108187033e-01
3.475154000000000451e+03,5.426646721695327358e-02,9.403362597969078251e-02
3.477083000000000084e+03,5.383373501504351566e-02,9.525666573052848918e-02
3.479010999999999967e+03,5.340888952014033464e-02,1.127858914677428714e-01
3.480940000000000055e+03,5.299149002114944551e-02,1.329991903143579179e-01
3.482867999999999938e+03,5.258196928064329256e-02,1.327218517817980725e-01
3.484797000000000025e+03,5.217990248457127223e-02,1.333625019888673435e-01
3.486724999999999909e+03,5.178570649845859464e-02,1.224277138184097780e-01
3.488654000000000451e+03,5.139897240530721945e-02,1.347864889180838688e-01
3.490582000000000335e+03,5.102010117358979358e-02,1.702902436539961428e-01
3.492510999999999967e+03,5.064869978335906353e-02,1.638909087907327589e-01
3.494439000000000306e+03,5.028515330603511302e-02,1.562432716706645408e-01
3.496367999999999938e+03,4.992908461872325177e-02,1.580252490252638253e-01
3.498295999999999822e+03,4.958086289579632933e-02,1.486679721461419135e-01
3.500224999999999909e+03,4.924012691140333686e-02,1.513908143747091373e-01
3.502152999999999793e+03,4.890722994287344250e-02,1.476724531885320602e-01
3.504082000000000335e+03,4.858182666139931882e-02,1.475999067961950573e-01
3.506010000000000218e+03,4.826425444726467617e-02,1.701579263542258857e-01
3.507939000000000306e+03,4.795418386870942129e-02,1.968771302039824533e-01
3.509867000000000189e+03,4.765193640897003036e-02,1.915549601427528614e-01
3.511795999999999822e+03,4.735719853333542062e-02,1.812914501153120028e-01
3.513724000000000160e+03,4.707027582798950505e-02,2.030723150387379050e-01
3.515652999999999793e+03,4.679087065527376410e-02,2.411886260828444151e-01
3.517580999999999676e+03,4.651927270432487660e-02,2.828749491036885999e-01
3.519510000000000218e+03,4.625520023452800444e-02,3.043710812193394233e-01
3.521438000000000102e+03,4.599892703797614502e-02,2.948090878734861420e-01
3.523367000000000189e+03,4.575018727109814165e-02,2.973420774073716188e-01
3.525295000000000073e+03,4.550923882893975758e-02,3.115149922987390241e-01
3.527224000000000160e+03,4.527583176498417572e-02,3.232488653459197891e-01
3.529152000000000044e+03,4.505020807721926701e-02,3.113113949050729801e-01
3.531080999999999676e+03,4.483213371618255394e-02,2.897363658178342405e-01
3.533009000000000015e+03,4.462183478281467330e-02,2.620296097651806377e-01
3.534938000000000102e+03,4.441909312469682902e-02,2.475119413580619820e-01
3.536865999999999985e+03,4.422411894572420010e-02,2.335866918650859603e-01
3.538795000000000073e+03,4.403670999052522461e-02,2.355522928053730425e-01
3.540722999999999956e+03,4.385706056594962376e-02,2.338484380360998927e-01
3.542652000000000044e+03,4.368498431366774071e-02,2.444212598615420617e-01
3.544579999999999927e+03,4.352065964348739158e-02,2.490282685950937491e-01
3.546509000000000015e+03,4.336391609412793002e-02,2.273229431789376420e-01
3.548436999999999898e+03,4.321491617834105625e-02,2.240628098235220023e-01
3.550365999999999985e+03,4.307350533190223985e-02,2.233402877715455759e-01
3.552294000000000324e+03,4.293983017051061779e-02,2.064105892143901499e-01
3.554222999999999956e+03,4.281375202699067017e-02,2.078367605545556884e-01
3.556150999999999840e+03,4.269540161999607619e-02,2.328479348198913002e-01
3.558079999999999927e+03,4.258465617939322101e-02,2.675448871570456078e-01
3.560007999999999811e+03,4.248163052679387874e-02,3.017914356428228473e-01
3.561936999999999898e+03,4.238621778910989235e-02,3.335000823040870088e-01
3.563864999999999782e+03,4.229851689090757816e-02,3.735421168462771391e-01
3.565794000000000324e+03,4.221843685614423691e-02,4.055103609071348814e-01
3.567722000000000207e+03,4.214606071233539808e-02,4.426172198095645882e-01
3.569650999999999840e+03,4.208131338049270198e-02,4.908655645319015548e-01
3.571579000000000178e+03,4.202426199107733851e-02,5.254146942064990000e-01
3.573507999999999811e+03,4.197484736215528756e-02,5.302572122836961555e-01
3.575435999999999694e+03,4.193312072713695215e-02,4.501768513138681982e-01
3.577364999999999782e+03,4.189903880113199364e-02,3.348744933517098232e-01
3.579292999999999665e+03,4.187263692051068631e-02,2.561133835827495986e-01
3.581222000000000207e+03,4.185388769742637294e-02,2.145272865802985152e-01
3.583150000000000091e+03,4.184281057119676461e-02,1.826408800159402546e-01
3.585079000000000178e+03,4.183939405103309639e-02,1.381037559955640148e-01
3.587007000000000062e+03,4.184364167920051614e-02,1.074667031483835800e-01
3.588935999999999694e+03,4.185555786195394035e-02,8.284994074009510712e-02
3.590864000000000033e+03,4.187513024451661181e-02,6.622459016554849143e-02
3.592792999999999665e+03,4.190237913019068117e-02,7.054030493318297346e-02
3.594720999999999549e+03,4.193727626715038070e-02,6.737120462753676264e-02
3.596650000000000091e+03,4.197985785574331885e-02,6.747307783857081631e-02
3.598577999999999975e+03,4.203007974709827010e-02,7.110319145513699368e-02
3.600507000000000062e+03,4.208799403861007704e-02,7.093530512261825294e-02
3.602434999999999945e+03,4.215354068435850365e-02,3.983061588600378400e-02
3.604364000000000033e+03,4.222678767879095574e-02,3.007796535009887862e-02
3.606291999999999916e+03,4.230765907893641042e-02,5.856745741686886220e-02
3.608220999999999549e+03,4.239623877628773130e-02,5.831298769155868200e-02
3.610149000000000342e+03,4.249243493082666134e-02,4.353790605053475815e-03
3.612077999999999975e+03,4.259634733109862736e-02,-2.850315068617881309e-02
3.614005999999999858e+03,4.270786824003458548e-02,-2.250935938635389988e-02
3.615934999999999945e+03,4.282711334322542029e-02,2.042078973226235661e-02
3.617862999999999829e+03,4.295395900655663013e-02,3.022591051813972030e-02
