wavenumber (/cm),baseline value (/cm),baseline-subtracted absorbance (/cm),
3.290019000000000233e+03,3.513757922399083355e-01,4.440892098500626162e-15
3.291947000000000116e+03,3.512014004726626837e-01,-4.122381506533567830e-02
3.293875000000000000e+03,3.510162966416743302e-01,-5.752039310171586095e-02
3.295804000000000087e+03,3.508203764032185035e-01,-1.917097154930136327e-02
3.297731999999999971e+03,3.506138428886984570e-01,2.059268053068485926e-02
3.299660999999999603e+03,3.503964818517246727e-01,5.511143764396209122e-04
3.301589000000000397e+03,3.501685186536693806e-01,4.201554000526463994e-03
3.303518000000000029e+03,3.499297168181829676e-01,1.764177800327182410e-02
3.305447000000000116e+03,3.496801918039729173e-01,3.184941091669291069e-02
3.307375000000000000e+03,3.494200813025898356e-01,3.406345556555034904e-02
3.309302999999999884e+03,3.491492587374640522e-01,3.043104733766277548e-02
3.311231999999999971e+03,3.488675753049470529e-01,4.340030198221711544e-03
3.313159999999999854e+03,3.485753230562895766e-01,-9.282542100964796816e-03
3.315089000000000397e+03,3.482721988252563960e-01,-1.186975112981158986e-04
3.317017000000000280e+03,3.479585168930618977e-01,1.899000683548823787e-02
3.318945999999999913e+03,3.476339518635143122e-01,3.722228557658446846e-02
3.320875000000000000e+03,3.472986636552430895e-01,2.635182328245821992e-02
3.322802999999999884e+03,3.469528344197225778e-01,3.839729697616434123e-02
3.324730999999999767e+03,3.465962931204611408e-01,5.172338534607145988e-02
3.326659999999999854e+03,3.462288464938847454e-01,-3.697543355841936830e-03
3.328587999999999738e+03,3.458508755110880628e-01,-2.049687953025713938e-02
3.330517000000000280e+03,3.454619880859919334e-01,1.522899970191815555e-02
3.332445000000000164e+03,3.450625874196617815e-01,1.632170690712531069e-02
3.334374000000000251e+03,3.446522591960512472e-01,3.835206913908528747e-02
3.336302000000000135e+03,3.442314288461894023e-01,6.444611018611823283e-02
3.338230999999999767e+03,3.437996598240626867e-01,6.348817446253374186e-02
3.340159000000000106e+03,3.433573997906655961e-01,5.381295111364625683e-02
3.342087999999999738e+03,3.429041899700244755e-01,9.801019490479845331e-03
3.344015999999999622e+03,3.424405002530921394e-01,-3.413473429235747147e-02
3.345945000000000164e+03,3.419658496339348375e-01,-5.773953953964028329e-02
3.347873000000000047e+03,3.414807302334672556e-01,-2.256049526670356187e-02
3.349802000000000135e+03,3.409846388157955488e-01,4.312161307870709948e-03
3.351730000000000018e+03,3.404780897317962740e-01,1.393142297882121738e-03
3.353659000000000106e+03,3.399605575156083859e-01,2.916759212111852406e-02
3.355586999999999989e+03,3.394325787480738654e-01,2.735981574875623323e-02
3.357515999999999622e+03,3.388936057333715723e-01,4.666521324946959481e-02
3.359444000000000415e+03,3.383441972823000299e-01,5.039749386006953102e-02
3.361373000000000047e+03,3.377837834690833319e-01,4.589530139720121582e-02
3.363302000000000135e+03,3.372126464771412202e-01,3.940043127830694658e-02
3.365230000000000018e+03,3.366310907227454408e-01,-2.152809690129764419e-03
3.367157999999999902e+03,3.360388229046087361e-01,2.517620260165198687e-02
3.369086999999999989e+03,3.354355274943614518e-01,3.144807120713721815e-02
3.371014999999999873e+03,3.348218299926877251e-01,2.819022751233557500e-02
3.372944000000000415e+03,3.341970937839224831e-01,5.386133874042453584e-02
3.374872000000000298e+03,3.335619665987152871e-01,5.863389056622470008e-02
3.376800999999999931e+03,3.329157895914374166e-01,4.585913698144672423e-02
3.378729000000000269e+03,3.322592327226967512e-01,4.393646985884469558e-02
3.380657999999999902e+03,3.315916149169044758e-01,3.407463952736655699e-02
3.382585999999999785e+03,3.309136283646285648e-01,1.202036452453381088e-02
3.384514999999999873e+03,3.302245697603183316e-01,1.059245357938110033e-03
3.386442999999999756e+03,3.295251535245071750e-01,3.193102208223130845e-02
3.388372000000000298e+03,3.288146541216825369e-01,4.011099126400186066e-02
3.390300000000000182e+03,3.280938082023379110e-01,2.463464946525384391e-03
3.392229000000000269e+03,3.273618680010006443e-01,-3.372993107102661980e-02
3.394157000000000153e+03,3.266195923981207727e-01,-1.588068375691076284e-02
3.396085999999999785e+03,3.258662113982655484e-01,3.818438470337248702e-03
3.398014000000000124e+03,3.251025061118522075e-01,1.371493089541253596e-02
3.399942999999999756e+03,3.243276843134825782e-01,7.104530866606673101e-03
3.401870999999999640e+03,3.235425493435339916e-01,3.991845462463672334e-03
3.403800000000000182e+03,3.227462867466464047e-01,3.116699196721839371e-02
3.405728000000000065e+03,3.219397220931679016e-01,2.026077257370317852e-02
3.407657000000000153e+03,3.211220186977659097e-01,-1.650770427513581495e-02
3.409585000000000036e+03,3.202940243607503845e-01,-2.786629209919588845e-02
3.411514000000000124e+03,3.194548801668339877e-01,-2.039165555715882761e-02
3.413442000000000007e+03,3.186054561462832169e-01,-2.093425503328383286e-02
3.415370999999999640e+03,3.177448711538524151e-01,-1.313983173508770363e-02
3.417299000000000433e+03,3.168740174497681750e-01,7.540111472784438718e-03
3.419228000000000065e+03,3.159919916588176392e-01,-8.588992740902412493e-03
3.421155999999999949e+03,3.150997082712034825e-01,6.863483063188624556e-04
3.423085000000000036e+03,3.141962416817403181e-01,2.744311525132481222e-02
3.425012999999999920e+03,3.132825286105855866e-01,8.009898321504316243e-02
3.426942000000000007e+03,3.123576212226080173e-01,1.049464443207526188e-01
3.428869999999999891e+03,3.114224784679198166e-01,7.187246665497326603e-02
3.430799000000000433e+03,3.104761302814260659e-01,4.142756426177829354e-02
3.432727000000000317e+03,3.095195578432079486e-01,3.515117951959911835e-02
3.434655999999999949e+03,3.085517688581962403e-01,4.294846301689947410e-02
3.436584000000000287e+03,3.075737667364428773e-01,2.092986597340296129e-02
3.438512999999999920e+03,3.065845369529185405e-01,-1.175405083371217074e-04
3.440440999999999804e+03,3.055851051476281555e-01,2.295493584769658924e-04
3.442369999999999891e+03,3.045744345655876373e-01,-3.074308505252609791e-02
3.444297999999999774e+03,3.035535730767637830e-01,-3.835725216163066165e-02
3.446227000000000317e+03,3.025214616962106362e-01,1.996810392444103854e-02
3.448155000000000200e+03,3.014791705238515362e-01,7.470261955189272385e-02
3.450084000000000287e+03,3.004256183447822082e-01,6.616272606702722214e-02
3.452012000000000171e+03,2.993618974888878626e-01,4.906676227305251103e-02
3.453940999999999804e+03,2.982869045113041295e-01,3.990137806714599833e-02
3.455869000000000142e+03,2.972017539718745383e-01,5.051659507743710975e-02
3.457797999999999774e+03,2.961053201957746239e-01,8.547606796313633737e-02
3.459725999999999658e+03,2.949987399728133397e-01,9.495411209087389892e-02
3.461655000000000200e+03,2.938808653981990204e-01,7.518776963039730532e-02
3.463583000000000084e+03,2.927528554917024906e-01,7.522983116774994983e-02
3.465512000000000171e+03,2.916135401185702136e-01,7.551275451738526101e-02
3.467440000000000055e+03,2.904641005285419908e-01,9.717154640297742674e-02
3.469369000000000142e+03,2.893033443568935326e-01,1.008891119732950870e-01
3.471297000000000025e+03,2.881324750833300641e-01,5.499320121903483738e-02
3.473225999999999658e+03,2.869502781131672009e-01,7.321744487338310847e-02
3.475154000000000451e+03,2.857579791560702631e-01,1.063227133775495048e-01
3.477083000000000084e+03,2.845543413873929950e-01,1.362533568658141903e-01
3.479010999999999967e+03,2.833406127467608115e-01,1.621378228692531565e-01
3.480940000000000055e+03,2.821155341795673621e-01,1.267668278547491312e-01
3.482867999999999938e+03,2.808803758553999330e-01,1.101514683245348181e-01
3.484797000000000025e+03,2.796338564896903023e-01,1.314219481168938941e-01
3.486724999999999909e+03,2.783772684819894039e-01,1.459711624965231991e-01
3.488654000000000451e+03,2.771093083177671446e-01,1.390639796711026221e-01
3.490582000000000335e+03,2.758312906265327769e-01,1.194400032365052766e-01
3.492510999999999967e+03,2.745418896637943362e-01,1.510671689233120674e-01
3.494439000000000306e+03,2.732424422890229465e-01,1.787625043797032021e-01
3.496367999999999938e+03,2.719316005277683246e-01,1.614468196299068126e-01
3.498295999999999822e+03,2.706107234694652419e-01,1.581015968273336014e-01
3.500224999999999909e+03,2.692784409096944387e-01,1.450699900688174893e-01
3.502152999999999793e+03,2.679361341678561104e-01,1.011263175248311441e-01
3.504082000000000335e+03,2.665824108095726785e-01,1.200082523532026713e-01
3.506010000000000218e+03,2.652186743841991046e-01,1.546105109612945228e-01
3.507939000000000306e+03,2.638435102273994914e-01,1.516480649774223366e-01
3.509867000000000189e+03,2.624583441184924482e-01,1.539220856233516344e-01
3.511795999999999822e+03,2.610617391631766537e-01,1.899160008275471156e-01
3.513724000000000160e+03,2.596551433707343648e-01,2.105945088166194523e-01
3.515652999999999793e+03,2.582370976169041654e-01,2.336681427602789185e-01
3.517580999999999676e+03,2.568090721409284072e-01,2.503357725027557379e-01
3.519510000000000218e+03,2.553695855885838029e-01,2.535769285557956110e-01
3.521438000000000102e+03,2.539201304290745753e-01,2.533754330274087252e-01
3.523367000000000189e+03,2.524592030782120133e-01,2.614904027341227177e-01
3.525295000000000073e+03,2.509883182351675401e-01,2.724758957082533684e-01
3.527224000000000160e+03,2.495059500857905732e-01,2.664918857466398450e-01
3.529152000000000044e+03,2.480136355592108544e-01,2.685391546711173305e-01
3.531080999999999676e+03,2.465098266113194825e-01,2.681346315738695196e-01
3.533009000000000015e+03,2.449960824012098470e-01,2.866131307692949548e-01
3.534938000000000102e+03,2.434708326548005175e-01,2.709649379434369010e-01
3.536865999999999985e+03,2.419356587611538600e-01,2.616035281301725135e-01
3.538795000000000073e+03,2.403889682162301256e-01,2.959675010989641919e-01
3.540722999999999956e+03,2.388323646390499988e-01,2.955400267661127955e-01
3.542652000000000044e+03,2.372642332956100830e-01,2.982358439960890450e-01
3.544579999999999927e+03,2.356862000348982633e-01,2.616789259505694076e-01
3.546509000000000015e+03,2.340966278929439426e-01,2.542153214037004005e-01
3.548436999999999898e+03,2.324971649486933245e-01,2.794992796331579044e-01
3.550365999999999985e+03,2.308861520082245988e-01,2.409433425040630183e-01
3.552294000000000324e+03,2.292652593804387351e-01,2.405237342816404222e-01
3.554222999999999956e+03,2.276328056414556045e-01,2.840900263263907988e-01
3.556150999999999840e+03,2.259904833301362714e-01,3.179359349725370265e-01
3.558079999999999927e+03,2.243365887926369595e-01,3.862245489411684218e-01
3.560007999999999811e+03,2.226728367977877099e-01,4.051977768982997219e-01
3.561936999999999898e+03,2.209975014617704403e-01,3.705212804210544775e-01
3.563864999999999782e+03,2.193123197833841687e-01,3.615177930624957625e-01
3.565794000000000324e+03,2.176155436488524941e-01,3.733985234403407460e-01
3.567722000000000207e+03,2.159089322869309768e-01,3.726132504306436388e-01
3.569650999999999840e+03,2.141907153538866737e-01,3.943391965335756311e-01
3.571579000000000178e+03,2.124626743084334635e-01,4.800616725767099524e-01
3.573507999999999811e+03,2.107230165768694263e-01,4.972302992370112307e-01
3.575435999999999694e+03,2.089735458478827468e-01,4.384588239156039791e-01
3.577364999999999782e+03,2.072124473178060811e-01,3.768631439636900282e-01
3.579292999999999665e+03,2.054415469052823795e-01,3.210215849543551769e-01
3.581222000000000207e+03,2.036590075766877561e-01,2.676680908929354175e-01
3.583150000000000091e+03,2.018666774806305853e-01,1.819801303722057284e-01
3.585079000000000178e+03,2.000626973535251096e-01,1.581634581573716503e-01
3.587007000000000062e+03,1.982489375739326931e-01,1.146247677901097717e-01
3.588935999999999694e+03,1.964235166483110362e-01,9.754154750379750993e-02
3.590864000000000033e+03,1.945883271851833740e-01,1.515385857843618567e-01
3.592792999999999665e+03,1.927414654610455358e-01,1.524734054618166468e-01
3.594720999999999549e+03,1.908848463143844043e-01,1.359987523871142301e-01
3.596650000000000091e+03,1.890165437917286084e-01,1.402105392195540645e-01
3.598577999999999975e+03,1.871384949615375604e-01,1.386042782646175198e-01
3.600507000000000062e+03,1.852487516403673595e-01,1.177563496117572939e-01
3.602434999999999945e+03,1.833492731266392894e-01,1.483055421461996204e-01
3.604364000000000033e+03,1.814380890069546837e-01,1.233756379987642759e-01
3.606291999999999916e+03,1.795171808096913679e-01,2.463956675561984611e-02
3.608220999999999549e+03,1.775845558914923572e-01,-1.657280755326429045e-02
3.610149000000000342e+03,1.756422180106937958e-01,4.443584660516552987e-02
3.612077999999999975e+03,1.736881522939768274e-01,1.103341077152970584e-01
3.614005999999999858e+03,1.717243847296483494e-01,8.819523190352374087e-02
3.615934999999999945e+03,1.697488782144169761e-01,1.760465401622113291e-02
3.617862999999999829e+03,1.677636809665514761e-01,2.511698065038991956e-02
