wavenumber (/cm),baseline value (/cm),baseline-subtracted absorbance (/cm),
3.290019000000000233e+03,3.224741072808718911e-01,6.217248937900876626e-15
3.291947000000000116e+03,3.225426386580849680e-01,-3.906064226179228882e-03
3.293875000000000000e+03,3.225984446362630820e-01,-2.004844388929782895e-03
3.295804000000000087e+03,3.226415442582286630e-01,-1.186141568477960817e-03
3.297731999999999971e+03,3.226718928380165607e-01,1.769288179142236572e-03
3.299660999999999603e+03,3.226895218575478452e-01,1.734654985859229726e-03
3.301589000000000397e+03,3.226944130389419740e-01,5.330685594051587373e-05
3.303518000000000029e+03,3.226865714560389620e-01,-5.259612111472300455e-03
3.305447000000000116e+03,3.226659912700498012e-01,-9.434425340230312429e-03
3.307375000000000000e+03,3.226326930537055659e-01,-1.034872335205161420e-02
3.309302999999999884e+03,3.225866694383192623e-01,-1.203403379138778817e-02
3.311231999999999971e+03,3.225278866505476572e-01,-1.292825765070260147e-02
3.313159999999999854e+03,3.224564056367711373e-01,-1.366911239206558548e-02
3.315089000000000397e+03,3.223721522465652356e-01,-1.355780690725438831e-02
3.317017000000000280e+03,3.222752138343984996e-01,-1.088937367363218556e-02
3.318945999999999913e+03,3.221654898417547486e-01,-1.168937297670646913e-02
3.320875000000000000e+03,3.220430272460284016e-01,-8.277375677006926225e-03
3.322802999999999884e+03,3.219078994361197488e-01,-8.870335670468243450e-03
3.324730999999999767e+03,3.217600462271725803e-01,-1.053110821511493711e-02
3.326659999999999854e+03,3.215993810296602362e-01,-7.343700089793347985e-03
3.328587999999999738e+03,3.214260704223228515e-01,-6.211199499460029472e-03
3.330517000000000280e+03,3.212399346223726582e-01,-6.641078539516342971e-03
3.332445000000000164e+03,3.210411666166450573e-01,-4.618226440419981316e-03
3.334374000000000251e+03,3.208295602142641201e-01,-4.235032466544108587e-03
3.336302000000000135e+03,3.206053348101427503e-01,-6.433128905057206026e-03
3.338230999999999767e+03,3.203682578053275165e-01,-8.759817551810655800e-03
3.340159000000000106e+03,3.201185750028194832e-01,-7.638284386032090367e-03
3.342087999999999738e+03,3.198560273955664002e-01,-2.858809896725933442e-03
3.344015999999999622e+03,3.195808871946681506e-01,-3.952505682842666346e-03
3.345945000000000164e+03,3.192928689849807711e-01,-7.180486854821754861e-03
3.347873000000000047e+03,3.189922713856887526e-01,-7.075437253674987659e-03
3.349802000000000135e+03,3.186787825735635238e-01,-7.542594600151719675e-03
3.351730000000000018e+03,3.183527275758883945e-01,-5.678434794933018281e-03
3.353659000000000106e+03,3.180137681613253164e-01,-2.839861838864088384e-03
3.355586999999999989e+03,3.176622557652599710e-01,-3.178564313721654599e-03
3.357515999999999622e+03,3.172978257482661490e-01,-3.670791104548598582e-04
3.359444000000000415e+03,3.169208559538070347e-01,4.334491938200457639e-04
3.361373000000000047e+03,3.165309553343753635e-01,-2.996405944979851910e-03
3.363302000000000135e+03,3.161283161118646490e-01,-6.081941092541676142e-03
3.365230000000000018e+03,3.157131569196636178e-01,-1.169476149533199560e-02
3.367157999999999902e+03,3.152852723284205183e-01,-1.229717525004714318e-02
3.369086999999999989e+03,3.148444305041238067e-01,-1.122949774790171773e-02
3.371014999999999873e+03,3.143910885144904910e-01,-1.075992450150531354e-02
3.372944000000000415e+03,3.139247760877594828e-01,-1.327707165121649879e-02
3.374872000000000298e+03,3.134459766997359509e-01,-9.024118607295683603e-03
3.376800999999999931e+03,3.129541936705706462e-01,-7.167364176058566017e-03
3.378729000000000269e+03,3.124499368841568980e-01,-6.722621997776290215e-03
3.380657999999999902e+03,3.119326832525501914e-01,-5.391486777051923696e-03
3.382585999999999785e+03,3.114029690677533324e-01,-8.847705503060687704e-03
3.384514999999999873e+03,3.108602448337087765e-01,-1.068015517533815739e-02
3.386442999999999756e+03,3.103050732505217013e-01,-3.634026720919170117e-03
3.388372000000000298e+03,3.097368784140428488e-01,-1.441160374160421753e-03
3.390300000000000182e+03,3.091562494324655574e-01,-7.934267673306738544e-03
3.392229000000000269e+03,3.085625839935524084e-01,-5.330245146744072571e-03
3.394157000000000153e+03,3.079564976135813481e-01,2.777773525697746493e-03
3.396085999999999785e+03,3.073373615722374552e-01,6.592375930116745053e-04
3.398014000000000124e+03,3.067058177938726260e-01,1.039583350043837839e-03
3.399942999999999756e+03,3.060612111500944366e-01,1.043441810177458962e-03
3.401870999999999640e+03,3.054042099733393911e-01,-4.240969905322966582e-03
3.403800000000000182e+03,3.047341327271269051e-01,-5.148416233077934834e-03
3.405728000000000065e+03,3.040516741519816435e-01,-5.116753762431702768e-03
3.407657000000000153e+03,3.033561263033348609e-01,-4.976933228671320819e-03
3.409585000000000036e+03,3.026482103297993831e-01,-1.427774404617387916e-03
3.411514000000000124e+03,3.019271918787111986e-01,3.236666522895781384e-03
3.413442000000000007e+03,3.011938185067890572e-01,7.278124606520552931e-03
3.415370999999999640e+03,3.004473294532701289e-01,2.258812439008828221e-04
3.417299000000000433e+03,2.996884986829577713e-01,-7.009568400070165239e-03
3.419228000000000065e+03,2.989165390270009937e-01,-1.769996768676307397e-02
3.421155999999999949e+03,2.981322508582984199e-01,-1.592093535358340972e-02
3.423085000000000036e+03,2.973348205999037930e-01,-7.394335208034785722e-03
3.425012999999999920e+03,2.965250750328110030e-01,-1.535122953664647127e-03
3.426942000000000007e+03,2.957021741719856323e-01,1.390885033455635522e-03
3.428869999999999891e+03,2.948669712064990733e-01,2.110934093613181517e-04
3.430799000000000433e+03,2.940185997432394061e-01,1.582436637788120493e-04
3.432727000000000317e+03,2.931579393793626309e-01,2.815412204211220626e-04
3.434655999999999949e+03,2.922840973136686671e-01,3.062942414264746560e-03
3.436584000000000287e+03,2.913979795514016757e-01,1.825084291541489989e-03
3.438512999999999920e+03,2.904986668832734154e-01,-2.088230125054657549e-04
3.440440999999999804e+03,2.895870917226162078e-01,2.096311093522373881e-04
3.442369999999999891e+03,2.886623084520500981e-01,-1.182790752251250410e-03
3.444297999999999774e+03,2.877252758930062271e-01,5.944025735260538568e-04
3.446227000000000317e+03,2.867750220200022682e-01,-5.588594442323735478e-03
3.448155000000000200e+03,2.858125320625681809e-01,-8.554841538530588707e-03
3.450084000000000287e+03,2.848368075871299254e-01,2.625705938917644033e-03
3.452012000000000171e+03,2.838488602313056219e-01,1.109858141346142801e-02
3.453940999999999804e+03,2.828476651534330699e-01,1.182075345840827296e-02
3.455869000000000142e+03,2.818342603992185502e-01,7.456201805140505456e-03
3.457797999999999774e+03,2.808075947189081489e-01,1.413443650693801956e-02
3.459725999999999658e+03,2.797687325663034130e-01,2.080940934125585784e-02
3.461655000000000200e+03,2.787165962835622679e-01,1.385567145488275642e-02
3.463583000000000084e+03,2.776522767325637631e-01,1.528017032262196651e-02
3.465512000000000171e+03,2.765746698473883214e-01,2.265550483185130304e-02
3.467440000000000055e+03,2.754848928979996003e-01,3.157029337499439592e-02
3.469369000000000142e+03,2.743818154103898621e-01,3.338600032620009372e-02
3.471297000000000025e+03,2.732665810626109248e-01,4.142888964383484307e-02
3.473225999999999658e+03,2.721380329725597846e-01,4.372995280576796873e-02
3.475154000000000451e+03,2.709973412263941839e-01,4.323592512079965644e-02
3.477083000000000084e+03,2.698433225339122998e-01,6.051994845078390028e-02
3.479010999999999967e+03,2.686771733893529301e-01,6.539532622418864349e-02
3.480940000000000055e+03,2.674976840944367495e-01,5.598353402273748003e-02
3.482867999999999938e+03,2.663060775514871636e-01,5.153207363107625838e-02
3.484797000000000025e+03,2.651011176541331338e-01,5.938180088041633553e-02
3.486724999999999909e+03,2.638840537127968844e-01,6.512661254164742175e-02
3.488654000000000451e+03,2.626536232130085580e-01,6.679683280801462786e-02
3.490582000000000335e+03,2.614111018732820924e-01,7.041066346911994955e-02
3.492510999999999967e+03,2.601552007710559167e-01,7.022507438739156171e-02
3.494439000000000306e+03,2.588872220329356821e-01,6.414029381186203693e-02
3.496367999999999938e+03,2.576058503282823153e-01,6.857362099649710885e-02
3.498295999999999822e+03,2.563124141917683119e-01,7.657211201011770996e-02
3.500224999999999909e+03,2.550055718846770958e-01,7.305981689256757505e-02
3.502152999999999793e+03,2.536866783497764288e-01,6.166422596310017212e-02
3.504082000000000335e+03,2.523543654402509162e-01,5.709995516571586549e-02
3.506010000000000218e+03,2.510100145069600330e-01,7.731662021247087679e-02
3.507939000000000306e+03,2.496522309949931184e-01,8.742691570465099815e-02
3.509867000000000189e+03,2.482824226633155718e-01,9.279966112088589014e-02
3.511795999999999822e+03,2.468991685489179133e-01,1.133914482388393985e-01
3.513724000000000160e+03,2.455039028188465977e-01,1.284055113100763812e-01
3.515652999999999793e+03,2.440951781020110900e-01,1.391379336617850626e-01
3.517580999999999676e+03,2.426744549735531109e-01,1.503035941839669931e-01
3.519510000000000218e+03,2.412402596542833066e-01,1.623599876791530505e-01
3.521438000000000102e+03,2.397940791274315586e-01,1.645798581117090542e-01
3.523367000000000189e+03,2.383344132057274578e-01,1.653786800080614405e-01
3.525295000000000073e+03,2.368627752804854936e-01,1.796281815907465607e-01
3.527224000000000160e+03,2.353776387563470962e-01,1.705722762227841471e-01
3.529152000000000044e+03,2.338805434327149158e-01,1.646694642964554589e-01
3.531080999999999676e+03,2.323699363061422218e-01,1.682290743601124738e-01
3.533009000000000015e+03,2.308473835841198252e-01,1.718184071099599919e-01
3.534938000000000102e+03,2.293113058551128347e-01,1.661408505832855376e-01
3.536865999999999985e+03,2.277632957347002218e-01,1.593699551541543080e-01
3.538795000000000073e+03,2.262017474032518294e-01,1.681080377258252767e-01
3.540722999999999956e+03,2.246282798844525530e-01,1.700115407988063154e-01
3.542652000000000044e+03,2.230412609505734167e-01,1.481984978993260427e-01
3.544579999999999927e+03,2.214423360333803714e-01,1.172120154892661859e-01
3.546509000000000015e+03,2.198298464970633859e-01,1.050843597171891020e-01
3.548436999999999898e+03,2.182054641814836771e-01,1.274816590214844503e-01
3.550365999999999985e+03,2.165675040427323950e-01,1.363463930047243977e-01
3.552294000000000324e+03,2.149176643287589172e-01,1.199339356094077935e-01
3.554222999999999956e+03,2.132542335875768913e-01,1.421144478160405455e-01
3.556150999999999840e+03,2.115789364752096446e-01,1.715869315105686965e-01
3.558079999999999927e+03,2.098900351315933221e-01,1.910536965116276242e-01
3.560007999999999811e+03,2.081892806208358593e-01,2.086123888798598891e-01
3.561936999999999898e+03,2.064749086747852402e-01,2.251690857602119955e-01
3.563864999999999782e+03,2.047486967656375612e-01,2.193933653768880276e-01
3.565794000000000324e+03,2.030088542171490928e-01,1.866564727267370216e-01
3.567722000000000207e+03,2.012571849096147503e-01,2.140017422816047343e-01
3.569650999999999840e+03,1.994918717586884327e-01,3.044778298953541018e-01
3.571579000000000178e+03,1.977147450527638739e-01,3.545870017396302032e-01
3.573507999999999811e+03,1.959239612994032598e-01,3.541386449766825706e-01
3.575435999999999694e+03,1.941213771950884848e-01,3.118362669539300747e-01
3.577364999999999782e+03,1.923051228392935741e-01,2.562889411582331967e-01
3.579292999999999665e+03,1.904770813365885829e-01,1.978967013191539337e-01
3.581222000000000207e+03,1.886353563783558229e-01,1.553134765169907894e-01
3.583150000000000091e+03,1.867818574772641682e-01,1.209140769793752845e-01
3.585079000000000178e+03,1.849146619165971117e-01,7.820714980082454915e-02
3.587007000000000062e+03,1.830357056171081354e-01,1.708718818409771245e-02
3.588935999999999694e+03,1.811430394540103350e-01,3.389019597650477778e-02
3.590864000000000033e+03,1.792386257561311425e-01,6.832050239350540011e-02
3.592792999999999665e+03,1.773204889905990456e-01,4.798635905392067968e-02
3.594720999999999549e+03,1.753906178943296368e-01,3.718783318002483185e-02
3.596650000000000091e+03,1.734470105263632433e-01,5.656071864352396616e-02
3.598577999999999975e+03,1.714916820317036183e-01,6.229329246203541004e-02
3.600507000000000062e+03,1.695226040612958229e-01,6.047121260279464394e-02
3.602434999999999945e+03,1.675418181682495344e-01,6.647966892403678330e-02
3.604364000000000033e+03,1.655472695954074425e-01,7.073036218693840027e-02
3.606291999999999916e+03,1.635410263039744905e-01,4.551910663774760835e-02
3.608220999999999549e+03,1.615210071286981020e-01,1.968474337369752192e-02
3.610149000000000342e+03,1.594893064388678283e-01,3.109501880460063816e-02
3.612077999999999975e+03,1.574438166611571432e-01,1.627468697155265431e-02
3.614005999999999858e+03,1.553866585729366534e-01,-4.776054151851560903e-03
3.615934999999999945e+03,1.533156981927952245e-01,9.462165464647842583e-03
3.617862999999999829e+03,1.512330827061845184e-01,-4.848015462406873866e-03
