wavenumber (/cm),baseline value (/cm),baseline-subtracted absorbance (/cm),
3.290019000000000233e+03,2.457597773999093960e-01,-2.109423746787797427e-15
3.291947000000000116e+03,2.453691157372785980e-01,-2.703093168102466137e-03
3.293875000000000000e+03,2.449742144284057233e-01,-8.565764627231908790e-04
3.295804000000000087e+03,2.445748653499091319e-01,2.555371162689445974e-03
3.297731999999999971e+03,2.441714825495653329e-01,3.555600461719210514e-03
3.299660999999999603e+03,2.437636475804838554e-01,2.275925769338327243e-03
3.301589000000000397e+03,2.433517832886673560e-01,2.631135245881988105e-03
3.303518000000000029e+03,2.429354624290009923e-01,2.677769909845806318e-03
3.305447000000000116e+03,2.425148975239777016e-01,4.777496972853345625e-03
3.307375000000000000e+03,2.420903098954614308e-01,1.540776825824763385e-03
3.309302999999999884e+03,2.416614826207030831e-01,-9.299939825827552298e-04
3.311231999999999971e+03,2.412281899798651708e-01,4.492864278907382491e-03
3.313159999999999854e+03,2.407908812136350107e-01,1.214357542572186421e-02
3.315089000000000397e+03,2.403491026822122123e-01,1.217740837050063085e-02
3.317017000000000280e+03,2.399033124245111281e-01,1.260016570193811525e-02
3.318945999999999913e+03,2.394530480025034436e-01,1.370686852246183474e-02
3.320875000000000000e+03,2.389985395351397202e-01,1.351181755250907557e-02
3.322802999999999884e+03,2.385400259407379764e-01,1.190471049456887087e-02
3.324730999999999767e+03,2.380772727000932676e-01,1.572462867569890399e-02
3.326659999999999854e+03,2.376100364969149226e-01,1.972247239163038568e-02
3.328587999999999738e+03,2.371388017647984015e-01,1.891537971611056967e-02
3.330517000000000280e+03,2.366630796710351703e-01,1.618852026713146763e-02
3.332445000000000164e+03,2.361833634474477250e-01,1.600035892076989708e-02
3.334374000000000251e+03,2.356991554630987196e-01,1.908249548758922387e-02
3.336302000000000135e+03,2.352109577480394620e-01,2.023130535290351695e-02
3.338230999999999767e+03,2.347182638731055704e-01,2.253494373239761650e-02
3.340159000000000106e+03,2.342215846665753887e-01,2.342310539371217359e-02
3.342087999999999738e+03,2.337204049010557227e-01,1.974110383290628157e-02
3.344015999999999622e+03,2.332152442030537287e-01,1.902776089819846472e-02
3.345945000000000164e+03,2.327055785469491767e-01,2.123792122117573733e-02
3.347873000000000047e+03,2.321919363574762585e-01,2.415912253879837213e-02
3.349802000000000135e+03,2.316737848107868203e-01,2.747871171108684507e-02
3.351730000000000018e+03,2.311516611298420898e-01,3.099720268218453256e-02
3.353659000000000106e+03,2.306250236925668773e-01,3.384429150298118305e-02
3.355586999999999989e+03,2.300944185201512227e-01,3.372162723653449046e-02
3.357515999999999622e+03,2.295592951922902358e-01,3.381317350457180293e-02
3.359444000000000415e+03,2.290202085284027689e-01,3.620331906473372996e-02
3.361373000000000047e+03,2.284765993099568959e-01,3.792207127282254397e-02
3.363302000000000135e+03,2.279287460461549841e-01,3.320829213594422846e-02
3.365230000000000018e+03,2.273769360455668576e-01,2.719471335928702604e-02
3.367157999999999902e+03,2.268208863987366541e-01,2.719318069045795205e-02
3.369086999999999989e+03,2.262603053991201207e-01,2.774873772964780994e-02
3.371014999999999873e+03,2.256957742608189932e-01,2.227400468492224395e-02
3.372944000000000415e+03,2.251267073706166855e-01,1.280558510117191240e-02
3.374872000000000298e+03,2.245536947408437456e-01,6.278118522411779701e-03
3.376800999999999931e+03,2.239761419600574399e-01,2.831169834655811179e-03
3.378729000000000269e+03,2.233946478388117995e-01,3.493124614426745822e-03
3.380657999999999902e+03,2.228086091674406077e-01,5.646561647213999002e-03
3.382585999999999785e+03,2.222186335547249314e-01,6.047249889393202515e-03
3.384514999999999873e+03,2.216241089927670771e-01,5.657696541318535388e-03
3.386442999999999756e+03,2.210256518885795884e-01,6.608371917263600182e-03
3.388372000000000298e+03,2.204226414360368480e-01,1.710068410925580373e-03
3.390300000000000182e+03,2.198157028403784352e-01,-3.472295822292137402e-03
3.392229000000000269e+03,2.192042064972499205e-01,-3.436004302165618363e-03
3.394157000000000153e+03,2.185887864101196953e-01,-6.625036216890367591e-03
3.396085999999999785e+03,2.179688041764062945e-01,-8.870721010538318296e-03
3.398014000000000124e+03,2.173449025978042570e-01,-7.653682934796068871e-03
3.399942999999999756e+03,2.167164344735059700e-01,-8.488114795039414240e-03
3.401870999999999640e+03,2.160840514034330084e-01,-9.347229638090648329e-03
3.403800000000000182e+03,2.154470973885489471e-01,-1.132466733753634269e-02
3.405728000000000065e+03,2.148062328270041732e-01,-1.188476119305759138e-02
3.407657000000000153e+03,2.141607929215352257e-01,-8.801618396879096196e-03
3.409585000000000036e+03,2.135114468685195277e-01,-6.466849558270704179e-03
3.411514000000000124e+03,2.128575210724656941e-01,-5.723497266622468160e-03
3.413442000000000007e+03,2.121996935279781837e-01,-4.014193450686431852e-03
3.415370999999999640e+03,2.115372818413385758e-01,-2.339569675625208234e-03
3.417299000000000433e+03,2.108709728053792531e-01,-2.403280735507551391e-03
3.419228000000000065e+03,2.102000752281538709e-01,-5.245986497283583461e-03
3.421155999999999949e+03,2.095252847007236241e-01,-6.577765764257281766e-03
3.423085000000000036e+03,2.088459012329133557e-01,-7.406034174635367506e-03
3.425012999999999920e+03,2.081626292140121848e-01,-6.712946109977524500e-03
3.426942000000000007e+03,2.074747598556161421e-01,-6.023530917603991952e-03
3.428869999999999891e+03,2.067830063452431588e-01,-1.874519716707045980e-03
3.430799000000000433e+03,2.060866510962631182e-01,-5.460665627102456732e-03
3.432727000000000317e+03,2.053864160944183226e-01,-5.440597575327221769e-03
3.434655999999999949e+03,2.046815749548516195e-01,-4.586892623734017960e-03
3.436584000000000287e+03,2.039728584615358997e-01,-6.640890614882599685e-03
3.438512999999999920e+03,2.032595314313843105e-01,-5.398579197654185258e-03
3.440440999999999804e+03,2.025423334465967784e-01,1.644218478845660414e-04
3.442369999999999891e+03,2.018205205258603030e-01,-1.439089939389015527e-04
3.444297999999999774e+03,2.010948410496009586e-01,9.918802365329604243e-04
3.446227000000000317e+03,2.003645422382795971e-01,2.558784396439861553e-03
3.448155000000000200e+03,1.996303812705493286e-01,4.220986792520697861e-03
3.450084000000000287e+03,1.988915965686421927e-01,5.443849404460299191e-03
3.452012000000000171e+03,1.981489541094401119e-01,9.624426629468607608e-03
3.453940999999999804e+03,1.974016835169489781e-01,1.246947122103214678e-02
3.455869000000000142e+03,1.966505595662741968e-01,1.260658991587149114e-02
3.457797999999999774e+03,1.958948030831981768e-01,1.170181154039129368e-02
3.459725999999999658e+03,1.951351976410533595e-01,1.596118510743949059e-02
3.461655000000000200e+03,1.943709552673897889e-01,2.167364204285904261e-02
3.463583000000000084e+03,1.936028683337731593e-01,2.681558892391744386e-02
3.465512000000000171e+03,1.928301400695247025e-01,2.823640808320371232e-02
3.467440000000000055e+03,1.920535716444371488e-01,3.596018627796204736e-02
3.469369000000000142e+03,1.912723574896038059e-01,4.496353677535225302e-02
3.471297000000000025e+03,1.904873075730444398e-01,5.141352717730329758e-02
3.473225999999999658e+03,1.896976075276270990e-01,5.645017420061526625e-02
3.475154000000000451e+03,1.889040761195959206e-01,6.399536738017230775e-02
3.477083000000000084e+03,1.881058901835919173e-01,7.111732824274918929e-02
3.479010999999999967e+03,1.873038772840898147e-01,7.935603924087542005e-02
3.480940000000000055e+03,1.864972054575000371e-01,8.321217775474298861e-02
3.482867999999999938e+03,1.856867110665270104e-01,8.823460598402166344e-02
3.484797000000000025e+03,1.848715533493541230e-01,9.363061081821433262e-02
3.486724999999999909e+03,1.840525774669092840e-01,1.009023614726486384e-01
3.488654000000000451e+03,1.832289338591488459e-01,1.035880393979233816e-01
3.490582000000000335e+03,1.824014764852321946e-01,1.005066236848095595e-01
3.492510999999999967e+03,1.815693469868877585e-01,1.000942022479244242e-01
3.494439000000000306e+03,1.807334081214992949e-01,1.071251480695658564e-01
3.496367999999999938e+03,1.798927927325699727e-01,1.092047493914058975e-01
3.498295999999999822e+03,1.790483723757105849e-01,1.115297695318485660e-01
3.500224999999999909e+03,1.781992710961954884e-01,1.163885322737225891e-01
3.502152999999999793e+03,1.773463692478642884e-01,1.247810074718761486e-01
3.504082000000000335e+03,1.764887820777625294e-01,1.364660795700964879e-01
3.506010000000000218e+03,1.756273987379604051e-01,1.478373562473541680e-01
3.507939000000000306e+03,1.747613256772746482e-01,1.587334957789009460e-01
3.509867000000000189e+03,1.738914608460007116e-01,1.705954768568900271e-01
3.511795999999999822e+03,1.730169018947309567e-01,1.849189459952056414e-01
3.513724000000000160e+03,1.721385555719852078e-01,2.014987144852106171e-01
3.515652999999999793e+03,1.712555107301287904e-01,2.191344258906781084e-01
3.517580999999999676e+03,1.703686829159130056e-01,2.386330947931610824e-01
3.519510000000000218e+03,1.694771521834717021e-01,2.598662548346145629e-01
3.521438000000000102e+03,1.685818428777832167e-01,2.735904403190014822e-01
3.523367000000000189e+03,1.676818262547561389e-01,2.849627092221336255e-01
3.525295000000000073e+03,1.667780354575967294e-01,2.903494185538424421e-01
3.527224000000000160e+03,1.658695329439847654e-01,2.820517068148652440e-01
3.529152000000000044e+03,1.649572606553535437e-01,2.699998424517727758e-01
3.531080999999999676e+03,1.640402722511558053e-01,2.609662975432482934e-01
3.533009000000000015e+03,1.631195184710545476e-01,2.574621015629537935e-01
3.534938000000000102e+03,1.621940441762710350e-01,2.504705871423253960e-01
3.536865999999999985e+03,1.612648089046979649e-01,2.531783044049326081e-01
3.538795000000000073e+03,1.603308487193295662e-01,2.597839294534947108e-01
3.540722999999999956e+03,1.593931319562846838e-01,2.732483118526501942e-01
3.542652000000000044e+03,1.584506858803305107e-01,2.844751913804518528e-01
3.544579999999999927e+03,1.575044876258147042e-01,2.917276193458965272e-01
3.546509000000000015e+03,1.565535556592756450e-01,2.881052014902065750e-01
3.548436999999999898e+03,1.555988759132880261e-01,2.775055451718875243e-01
3.550365999999999985e+03,1.546394580561631926e-01,2.636898818727284599e-01
3.552294000000000324e+03,1.536762968187046496e-01,2.601793995795022019e-01
3.554222999999999956e+03,1.527083930709949300e-01,2.719743245051374769e-01
3.556150999999999840e+03,1.517367503420645747e-01,2.980418089406684512e-01
3.558079999999999927e+03,1.507603607037699689e-01,3.370928623600730756e-01
3.560007999999999811e+03,1.497802364833669131e-01,3.771609445337918975e-01
3.561936999999999898e+03,1.487953609544874212e-01,3.898238228451725851e-01
3.563864999999999782e+03,1.478067552426134412e-01,3.843887154638326864e-01
3.565794000000000324e+03,1.468133938231490632e-01,3.722270297353608148e-01
3.567722000000000207e+03,1.458163066198041591e-01,3.847792259200011333e-01
3.569650999999999840e+03,1.448144593097548949e-01,4.240265516656663847e-01
3.571579000000000178e+03,1.438088906149372903e-01,4.503296934011392638e-01
3.573507999999999811e+03,1.427985574143022518e-01,4.379956147916027609e-01
3.575435999999999694e+03,1.417845072280146113e-01,3.877250769426455745e-01
3.577364999999999782e+03,1.407656881367937984e-01,3.148344819049437859e-01
3.579292999999999665e+03,1.397431564590343456e-01,2.471377370330045675e-01
3.581222000000000207e+03,1.387158514772268703e-01,1.934163173278435899e-01
3.583150000000000091e+03,1.376848383079964933e-01,1.567142960249762185e-01
3.585079000000000178e+03,1.366490474356050200e-01,1.210171297169687632e-01
3.587007000000000062e+03,1.356095527749028307e-01,8.218516047289448068e-02
3.588935999999999694e+03,1.345652760119264713e-01,6.623863494803650109e-02
3.590864000000000033e+03,1.335172998597524696e-01,6.194869179274409277e-02
3.592792999999999665e+03,1.324645372061912241e-01,5.849627590248085429e-02
3.594720999999999549e+03,1.314080795625454101e-01,6.138346472559796929e-02
3.596650000000000091e+03,1.303468310183975021e-01,6.730582008687380213e-02
3.598577999999999975e+03,1.292818918832807640e-01,7.186596713666049130e-02
3.600507000000000062e+03,1.282121574485488580e-01,6.794196219900106026e-02
3.602434999999999945e+03,1.271387368219603076e-01,6.814020891926708678e-02
3.604364000000000033e+03,1.260605164966444036e-01,6.591985141184231178e-02
3.606291999999999916e+03,1.249786143785849291e-01,6.136309222212621428e-02
3.608220999999999549e+03,1.238919081626805863e-01,4.039816758318437451e-02
3.610149000000000342e+03,1.228015245531501876e-01,1.831920508048723306e-02
3.612077999999999975e+03,1.217063324466627350e-01,4.153305828186515392e-03
3.614005999999999858e+03,1.206074673456605240e-01,1.492084362486045812e-03
3.615934999999999945e+03,1.195037893485864089e-01,9.366187515836843502e-04
3.617862999999999829e+03,1.183964427561123856e-01,-4.083565959080326380e-03
