wavenumber (/cm),baseline value (/cm),baseline-subtracted absorbance (/cm),
3.290019000000000233e+03,3.116644920782860595e-01,-1.332267629550187849e-15
3.291947000000000116e+03,3.112802168563622018e-01,1.462560403655999153e-03
3.293875000000000000e+03,3.108855141425888036e-01,-1.613762115542094477e-04
3.295804000000000087e+03,3.104801711015614529e-01,-1.690795519082577414e-03
3.297731999999999971e+03,3.100646079956383971e-01,-1.061812096291081531e-03
3.299660999999999603e+03,3.096383937427535926e-01,-2.354143975745515149e-03
3.301589000000000397e+03,3.092019702446808793e-01,-4.979230263320477690e-03
3.303518000000000029e+03,3.087548847799439500e-01,-8.302881052077992763e-03
3.305447000000000116e+03,3.082973610036514600e-01,-5.968376847081291459e-03
3.307375000000000000e+03,3.078296442131271959e-01,-4.403735545839282395e-03
3.309302999999999884e+03,3.073514999307533913e-01,-5.293718010902725979e-03
3.311231999999999971e+03,3.068626720423051069e-01,-7.142261977067132506e-03
3.313159999999999854e+03,3.063636673677798683e-01,-9.398150126400661719e-03
3.315089000000000397e+03,3.058539682674741300e-01,-8.387053076421402409e-03
3.317017000000000280e+03,3.053341032008010103e-01,-6.157029575451833381e-03
3.318945999999999913e+03,3.048035328886413708e-01,-6.051435964131268719e-03
3.320875000000000000e+03,3.042625242649261708e-01,-6.610147750480965811e-03
3.322802999999999884e+03,3.037113659058015003e-01,-9.469986595457058343e-03
3.324730999999999767e+03,3.031497800548272892e-01,-8.646518172255479584e-03
3.326659999999999854e+03,3.025774673189562947e-01,-7.361251102740329344e-03
3.328587999999999738e+03,3.019950210758306497e-01,-8.044415297638884965e-03
3.330517000000000280e+03,3.014018371281057540e-01,-7.799786801917285572e-03
3.332445000000000164e+03,3.007985304928304515e-01,-6.902910735141709608e-03
3.334374000000000251e+03,3.001844753332481019e-01,-7.885314103052376566e-03
3.336302000000000135e+03,2.995603083058231419e-01,-9.345956022505319538e-03
3.338230999999999767e+03,2.989253819343833385e-01,-8.670023127300474641e-03
3.340159000000000106e+03,2.982803545148104973e-01,-6.579515745006148109e-03
3.342087999999999738e+03,2.976245569315185691e-01,-8.869664107660213404e-03
3.344015999999999622e+03,2.969586691197925177e-01,-1.072660947394021846e-02
3.345945000000000164e+03,2.962820003246431355e-01,-1.296513173191238266e-02
3.347873000000000047e+03,2.955952521207674266e-01,-9.179595084420899553e-03
3.349802000000000135e+03,2.948977121137623669e-01,-1.087814081832894075e-02
3.351730000000000018e+03,2.941901035177370005e-01,-1.211088636955492959e-02
3.353659000000000106e+03,2.934716922988762633e-01,-1.019023843121580342e-02
3.355586999999999989e+03,2.927432233107012394e-01,-8.175655743134058184e-03
3.357515999999999622e+03,2.920039408799866010e-01,-7.222021029101632905e-03
3.359444000000000415e+03,2.912546114996583668e-01,-2.473623615222297900e-03
3.361373000000000047e+03,2.904944578570880509e-01,-4.576470904618545887e-03
3.363302000000000135e+03,2.897238659029603980e-01,-9.466643162979515580e-03
3.365230000000000018e+03,2.889432432301859421e-01,-1.500568498228327385e-02
3.367157999999999902e+03,2.881521930655583930e-01,-1.595461617832638623e-02
3.369086999999999989e+03,2.873502969992767220e-01,-1.633445356964013939e-02
3.371014999999999873e+03,2.865383864424995153e-01,-1.588973779385094431e-02
3.372944000000000415e+03,2.857156191643639431e-01,-1.823472447657303874e-02
3.374872000000000298e+03,2.848828482154370789e-01,-2.274584914740351849e-02
3.376800999999999931e+03,2.840392097254422765e-01,-2.786027216719455524e-02
3.378729000000000269e+03,2.831855783843675312e-01,-2.711381696777825923e-02
3.380657999999999902e+03,2.823210686825152749e-01,-2.697344519696098786e-02
3.382585999999999785e+03,2.814465769492890956e-01,-2.583427499215984469e-02
3.384514999999999873e+03,2.805611960355864909e-01,-2.846520349131820282e-02
3.386442999999999756e+03,2.796658439102106541e-01,-2.855773580210252405e-02
3.388372000000000298e+03,2.787595917846488192e-01,-2.830572412388465686e-02
3.390300000000000182e+03,2.778433792671215485e-01,-2.856006146656286937e-02
3.392229000000000269e+03,2.769162559297058124e-01,-3.337105555691932679e-02
3.394157000000000153e+03,2.759791830200288842e-01,-3.478906186439068016e-02
3.396085999999999785e+03,2.750311884707574706e-01,-3.054283805137303354e-02
3.398014000000000124e+03,2.740732551689308849e-01,-2.838266803006828098e-02
3.399942999999999756e+03,2.731043894078037937e-01,-2.624604830808374700e-02
3.401870999999999640e+03,2.721255957138275505e-01,-2.285718937645575544e-02
3.403800000000000182e+03,2.711358587408430054e-01,-2.243781587038640168e-02
3.405728000000000065e+03,2.701362046547153284e-01,-1.947357650932901585e-02
3.407657000000000153e+03,2.691255964698768821e-01,-2.068291240650310669e-02
3.409585000000000036e+03,2.681050819915995476e-01,-2.600163371573760429e-02
3.411514000000000124e+03,2.670736025949054238e-01,-2.778562496210046362e-02
3.413442000000000007e+03,2.660322277244784317e-01,-2.506484655020102537e-02
3.415370999999999640e+03,2.649798771159286304e-01,-2.248779883074725205e-02
3.417299000000000433e+03,2.639176418533519808e-01,-2.108259991486205465e-02
3.419228000000000065e+03,2.628444200329447256e-01,-2.404945265177071967e-02
3.421155999999999949e+03,2.617613243782166421e-01,-2.422171580412535441e-02
3.423085000000000036e+03,2.606672313459590384e-01,-1.983684923971495984e-02
3.425012999999999920e+03,2.595632752990812975e-01,-1.122031164577319551e-02
3.426942000000000007e+03,2.584483110549644636e-01,-9.881675453846439083e-03
3.428869999999999891e+03,2.573234946159370651e-01,-1.047633711360718145e-02
3.430799000000000433e+03,2.561876591599627773e-01,-1.244581386639320719e-02
3.432727000000000317e+03,2.550419823287857213e-01,-7.245151014713346882e-03
3.434655999999999949e+03,2.538852756609575323e-01,-4.953309211749745700e-03
3.436584000000000287e+03,2.527187384376290424e-01,-2.773724458132731385e-03
3.438512999999999920e+03,2.515411605579469523e-01,-3.575631674532786519e-04
3.440440999999999804e+03,2.503537629424688049e-01,2.725185113987560470e-04
3.442369999999999891e+03,2.491553138509292609e-01,-1.889703412905507918e-03
3.444297999999999774e+03,2.479470558433014560e-01,-3.897399066754569930e-04
3.446227000000000317e+03,2.467277355399044581e-01,-1.673681485850453399e-03
3.448155000000000200e+03,2.454986171401269957e-01,4.093181555119729254e-03
3.450084000000000287e+03,2.442584256248760965e-01,1.136226403029594323e-02
3.452012000000000171e+03,2.430084468329472003e-01,1.768586817171291514e-02
3.453940999999999804e+03,2.417473841058424000e-01,2.027032325669209101e-02
3.455869000000000142e+03,2.404765449217620699e-01,1.698943830284171952e-02
3.457797999999999774e+03,2.391946109828015921e-01,1.766652601626628183e-02
3.459725999999999658e+03,2.379029114065733808e-01,2.518096557385529621e-02
3.461655000000000200e+03,2.366001062557590018e-01,2.713801117201342095e-02
3.463583000000000084e+03,2.352875462873793566e-01,3.234525893163242571e-02
3.465512000000000171e+03,2.339638699247057474e-01,3.915448981434366260e-02
3.467440000000000055e+03,2.326304495641764447e-01,4.654848799407140802e-02
3.469369000000000142e+03,2.312859019896489343e-01,5.782034218556031391e-02
3.471297000000000025e+03,2.299316212369699741e-01,6.670025201559282024e-02
3.473225999999999658e+03,2.285662024505867862e-01,7.048878356991616911e-02
3.475154000000000451e+03,2.271910613057546158e-01,8.202422294401223724e-02
3.477083000000000084e+03,2.258047713075175267e-01,9.317938526284574863e-02
3.479010999999999967e+03,2.244087697705374751e-01,1.002305592136192303e-01
3.480940000000000055e+03,2.230016085604429321e-01,9.856409507422592142e-02
3.482867999999999938e+03,2.215847466313132230e-01,1.037069588672885345e-01
3.484797000000000025e+03,2.201567142093612262e-01,1.170175635166406103e-01
3.486724999999999909e+03,2.187189918880818595e-01,1.156705700876869969e-01
3.488654000000000451e+03,2.172700882542741851e-01,1.139889984186051031e-01
3.490582000000000335e+03,2.158115055408451610e-01,1.180030331357624362e-01
3.492510999999999967e+03,2.143417306951835855e-01,1.164485768537444343e-01
3.494439000000000306e+03,2.128622875896031275e-01,1.175244784868181291e-01
3.496367999999999938e+03,2.113716415320876507e-01,1.164270537148834883e-01
3.498295999999999822e+03,2.098713380343557589e-01,1.164390067932301598e-01
3.500224999999999909e+03,2.083598207649828282e-01,1.217706545379062533e-01
3.502152999999999793e+03,2.068386568751030552e-01,1.235583608322592397e-01
3.504082000000000335e+03,2.053062683938762234e-01,1.242324082137660213e-01
3.506010000000000218e+03,2.037642441118467929e-01,1.371043486188145977e-01
3.507939000000000306e+03,2.022109844187625072e-01,1.457340295607343350e-01
3.509867000000000189e+03,2.006480997445816428e-01,1.569502227158094954e-01
3.511795999999999822e+03,1.990739688396399032e-01,1.762018932293254458e-01
3.513724000000000160e+03,1.974902237733111576e-01,1.982730567485897488e-01
3.515652999999999793e+03,1.958952216565172932e-01,2.184635854264276311e-01
3.517580999999999676e+03,1.942906161980353374e-01,2.389274639510787779e-01
3.519510000000000218e+03,1.926747428693840192e-01,2.625405413803827415e-01
3.521438000000000102e+03,1.910492770187524059e-01,2.811995580231858582e-01
3.523367000000000189e+03,1.894125324782454101e-01,2.867692009793501029e-01
3.525295000000000073e+03,1.877662062354641392e-01,2.898591432519541655e-01
3.527224000000000160e+03,1.861085904831032423e-01,2.795801327228613076e-01
3.529152000000000044e+03,1.844414038481723139e-01,2.696191739710260826e-01
3.531080999999999676e+03,1.827629168839557394e-01,2.624849861915330429e-01
3.533009000000000015e+03,1.810748698568733772e-01,2.519046268812439315e-01
3.534938000000000102e+03,1.793755116807993488e-01,2.389078061197595915e-01
3.536865999999999985e+03,1.776666042615673291e-01,2.305747750487774361e-01
3.538795000000000073e+03,1.759463748736393995e-01,2.303024601682990280e-01
3.540722999999999956e+03,1.742166070622577223e-01,2.364851636739957463e-01
3.542652000000000044e+03,1.724755064624723389e-01,2.306130303502023082e-01
3.544579999999999927e+03,1.707248782589410041e-01,2.115836026357467148e-01
3.546509000000000015e+03,1.689629064472999431e-01,1.974741858173780784e-01
3.548436999999999898e+03,1.671914178516189509e-01,1.978533165379428027e-01
3.550365999999999985e+03,1.654085748281239887e-01,1.973435220963866144e-01
3.552294000000000324e+03,1.636162258402933389e-01,1.933567471326793630e-01
3.554222999999999956e+03,1.618125116049426993e-01,2.100877679849917357e-01
3.556150999999999840e+03,1.599993022249606156e-01,2.422448729847319626e-01
3.558079999999999927e+03,1.581747167777542984e-01,2.758122356919567864e-01
3.560007999999999811e+03,1.563406470056225572e-01,3.135764079803977644e-01
3.561936999999999898e+03,1.544951903465587861e-01,3.447834676217542693e-01
3.563864999999999782e+03,1.526402601822773875e-01,3.594109979724287030e-01
3.565794000000000324e+03,1.507739323113579388e-01,3.553481552934880661e-01
3.567722000000000207e+03,1.488981417549251063e-01,3.840683074529032126e-01
3.569650999999999840e+03,1.470109426721517565e-01,4.655323937677358082e-01
3.571579000000000178e+03,1.451142917235692664e-01,5.167114305504285632e-01
3.573507999999999811e+03,1.432062214289402391e-01,5.092923806213853766e-01
3.575435999999999694e+03,1.412887100882080915e-01,4.460617092966931985e-01
3.577364999999999782e+03,1.393597685817233867e-01,3.545591503371956499e-01
3.579292999999999665e+03,1.374213968488398052e-01,2.690194232816351949e-01
3.581222000000000207e+03,1.354715841304976465e-01,2.032823767269116289e-01
3.583150000000000091e+03,1.335123520054661839e-01,1.549359238566028196e-01
3.585079000000000178e+03,1.315416680752701239e-01,1.065794875631265182e-01
3.587007000000000062e+03,1.295615755580872275e-01,5.220822872895847233e-02
3.588935999999999694e+03,1.275700204160354900e-01,4.714479785050684768e-02
3.590864000000000033e+03,1.255690675067011597e-01,6.581490267037226616e-02
3.592792999999999665e+03,1.235566411527955211e-01,6.204447720694328261e-02
3.594720999999999549e+03,1.215348278513115332e-01,5.672891865381401999e-02
3.596650000000000091e+03,1.195015302855502171e-01,6.579203914595010971e-02
3.598577999999999975e+03,1.174588565919183480e-01,6.677320305393430466e-02
3.600507000000000062e+03,1.154046878142995780e-01,5.632131404963325316e-02
3.602434999999999945e+03,1.133411537285162751e-01,5.772501588937739569e-02
3.604364000000000033e+03,1.112661137390418276e-01,6.202093192731394922e-02
3.606291999999999916e+03,1.091817192611070908e-01,4.535509341363641589e-02
3.608220999999999549e+03,1.070858080597787421e-01,2.143702511822676016e-02
3.610149000000000342e+03,1.049805531896925714e-01,2.751804886063324851e-02
3.612077999999999975e+03,1.028637707765085452e-01,2.475505494576535348e-02
3.614005999999999858e+03,1.007376555142744934e-01,1.532758213717011486e-02
3.615934999999999945e+03,9.860000188923478959e-02,1.911761227665520479e-02
3.617862999999999829e+03,9.645302623484930393e-02,7.612211416595071611e-03
