wavenumber (/cm),baseline value (/cm),baseline-subtracted absorbance (/cm),
3.290019000000000233e+03,3.716494048539242812e-01,-5.329070518200751394e-15
3.291947000000000116e+03,3.712363397282647526e-01,-3.905362215213159516e-02
3.293875000000000000e+03,3.708141176539072603e-01,-5.397534813775362039e-02
3.295804000000000087e+03,3.703825125105915106e-01,-1.340384501947955442e-02
3.297731999999999971e+03,3.699419717893910331e-01,2.663864345253230681e-02
3.299660999999999603e+03,3.694920384978548356e-01,1.385071815400706896e-04
3.301589000000000397e+03,3.690331791298095965e-01,-2.154217930240953649e-03
3.303518000000000029e+03,3.685649176900547275e-01,8.396745627306856363e-03
3.305447000000000116e+03,3.680874898002333140e-01,2.910218402879749533e-02
3.307375000000000000e+03,3.676011500871876336e-01,3.430872779192828403e-02
3.309302999999999884e+03,3.671056534254493187e-01,2.963418271615037014e-02
3.311231999999999971e+03,3.666007356892606595e-01,1.744449037900608346e-03
3.313159999999999854e+03,3.660869203806758065e-01,-1.513314081660066535e-02
3.315089000000000397e+03,3.655636744962666995e-01,-7.439544027878497445e-03
3.317017000000000280e+03,3.650315405408353087e-01,1.556437845746572179e-02
3.318945999999999913e+03,3.644899665082093065e-01,4.066848147447910122e-02
3.320875000000000000e+03,3.639392260255114309e-01,3.070677799365828520e-02
3.322802999999999884e+03,3.633796117250849278e-01,4.373740790700786363e-02
3.324730999999999767e+03,3.628108404759640138e-01,5.254856592379031355e-02
3.326659999999999854e+03,3.622326101468971160e-01,-5.771797038224057985e-03
3.328587999999999738e+03,3.616455202509314404e-01,-2.148243476631161997e-02
3.330517000000000280e+03,3.610489617736476475e-01,1.138340798984138758e-02
3.332445000000000164e+03,3.604435532308354340e-01,1.261024179158010128e-02
3.334374000000000251e+03,3.598286666053347460e-01,3.711599253827468914e-02
3.336302000000000135e+03,3.592049394156724418e-01,6.769952804452383788e-02
3.338230999999999767e+03,3.585717246419548587e-01,6.964979336701215828e-02
3.340159000000000106e+03,3.579296788054495693e-01,5.276440065041754224e-02
3.342087999999999738e+03,3.572781358835097620e-01,6.636688664334755572e-03
3.344015999999999622e+03,3.566177714001597110e-01,-3.330736793749089486e-02
3.345945000000000164e+03,3.559479003300030087e-01,-5.846374512827079428e-02
3.347873000000000047e+03,3.552692171998081960e-01,-2.572446530616101512e-02
3.349802000000000135e+03,3.545810179814292695e-01,4.455927450632835018e-03
3.351730000000000018e+03,3.538840162043879189e-01,-1.582269411992243136e-03
3.353659000000000106e+03,3.531774888377938737e-01,2.569714402663691999e-02
3.355586999999999989e+03,3.524621684139077615e-01,2.582968504103266838e-02
3.357515999999999622e+03,3.517373128990932685e-01,4.185056776252427113e-02
3.359444000000000415e+03,3.510036738283588420e-01,4.898009491487798073e-02
3.361373000000000047e+03,3.502604901653292302e-01,4.878263860264198115e-02
3.363302000000000135e+03,3.495081400522259685e-01,3.870951337179651119e-02
3.365230000000000018e+03,3.487470206364982062e-01,-1.019546707335017288e-02
3.367157999999999902e+03,3.479767442720742565e-01,1.586001565991068674e-02
3.369086999999999989e+03,3.471969043126073018e-01,2.279768526847281152e-02
3.371014999999999873e+03,3.464083093013350378e-01,1.898278669495567783e-02
3.372944000000000415e+03,3.456101411936458589e-01,4.436280671175030221e-02
3.374872000000000298e+03,3.448032275355306098e-01,5.069684975616883804e-02
3.376800999999999931e+03,3.439867312796245358e-01,3.399904704778400344e-02
3.378729000000000269e+03,3.431614989746645250e-01,3.211984280922841606e-02
3.380657999999999902e+03,3.423266745705397796e-01,2.161983957384183697e-02
3.382585999999999785e+03,3.414831236187332308e-01,1.771020730290118195e-04
3.384514999999999873e+03,3.406299710663880376e-01,-7.302563429967712239e-03
3.386442999999999756e+03,3.397681014677349509e-01,2.944738778871958118e-02
3.388372000000000298e+03,3.388966207671728625e-01,3.845923021443375944e-02
3.390300000000000182e+03,3.380164325216750143e-01,-1.498423555837291588e-03
3.392229000000000269e+03,3.371266236728960308e-01,-4.099352736743799852e-02
3.394157000000000153e+03,3.362281167805498683e-01,-2.057036442315141045e-02
3.396085999999999785e+03,3.353199797835522133e-01,5.071116212739035234e-03
3.398014000000000124e+03,3.344031542443612892e-01,1.725243394546893683e-02
3.399942999999999756e+03,3.334766890991431865e-01,7.459313374192255708e-03
3.401870999999999640e+03,3.325415449131092771e-01,2.208802899536621567e-03
3.403800000000000182e+03,3.315967516196725029e-01,3.021573871886662488e-02
3.405728000000000065e+03,3.306432887867920556e-01,2.097365355360114592e-02
3.407657000000000153e+03,3.296801673451348336e-01,-1.597016579929988467e-02
3.409585000000000036e+03,3.287083858654078483e-01,-2.803672100221366037e-02
3.411514000000000124e+03,3.277269362755355075e-01,-2.432842027615311764e-02
3.413442000000000007e+03,3.267368361489637607e-01,-1.934774973684305621e-02
3.415370999999999640e+03,3.257370584108709721e-01,-1.059561460193592097e-02
3.417299000000000433e+03,3.247286396374509110e-01,1.074438555964363218e-02
3.419228000000000065e+03,3.237105337511430037e-01,-5.941324526412827822e-04
3.421155999999999949e+03,3.226837963308764046e-01,7.248959891107631393e-03
3.423085000000000036e+03,3.216473622963480494e-01,3.052453444194380694e-02
3.425012999999999920e+03,3.206023062292384651e-01,8.002375653162108193e-02
3.426942000000000007e+03,3.195475440464914385e-01,1.064587938728172034e-01
3.428869999999999891e+03,3.184841693325335399e-01,7.398298169544759162e-02
3.430799000000000433e+03,3.174110790015678418e-01,3.695435615069797564e-02
3.432727000000000317e+03,3.163293856407669580e-01,3.398441865665269290e-02
3.434655999999999949e+03,3.152379671615808121e-01,4.417925342892914387e-02
3.436584000000000287e+03,3.141379551539369430e-01,2.179418273445499210e-02
3.438512999999999920e+03,3.130282085265321257e-01,4.481452935826801820e-03
3.440440999999999804e+03,3.119098778720399423e-01,2.566084473292207235e-04
3.442369999999999891e+03,3.107818030964164535e-01,-3.554683633184652081e-02
3.444297999999999774e+03,3.096451537950795085e-01,-4.353679083326067456e-02
3.446227000000000317e+03,3.084987508712373483e-01,1.023289235028101984e-02
3.448155000000000200e+03,3.073437829230538654e-01,7.117067062463711125e-02
3.450084000000000287e+03,3.061790518509930337e-01,7.366868350223221285e-02
3.452012000000000171e+03,3.050057652559647892e-01,5.644268118089001973e-02
3.453940999999999804e+03,3.038227060356888387e-01,3.687523800512160221e-02
3.455869000000000142e+03,3.026311007938122799e-01,4.512512118794820282e-02
3.457797999999999774e+03,3.014297134253158816e-01,8.059223741716436962e-02
3.459725999999999658e+03,3.002197895365945612e-01,8.674651128269861289e-02
3.461655000000000200e+03,2.990000740198794915e-01,6.559259872706846295e-02
3.463583000000000084e+03,2.977718314843134095e-01,6.690431629741588893e-02
3.465512000000000171e+03,2.965337878193778920e-01,6.935661255162361982e-02
3.467440000000000055e+03,2.952872266369670484e-01,9.474832754451512074e-02
3.469369000000000142e+03,2.940308548238164121e-01,9.673356007802347278e-02
3.471297000000000025e+03,2.927659749945554779e-01,4.479083440411546491e-02
3.473225999999999658e+03,2.914912750331861702e-01,6.555927373787717727e-02
3.475154000000000451e+03,2.902080765570804743e-01,1.038721522263488239e-01
3.477083000000000084e+03,2.889150484474942715e-01,1.317403851589373787e-01
3.479010999999999967e+03,2.876135313245420377e-01,1.540119131027273269e-01
3.480940000000000055e+03,2.863021750667353871e-01,1.184396706590344905e-01
3.482867999999999938e+03,2.849823392969401681e-01,1.071045365725931120e-01
3.484797000000000025e+03,2.836526548909130696e-01,1.311108325105410088e-01
3.486724999999999909e+03,2.823145004742713127e-01,1.389994584065448180e-01
3.488654000000000451e+03,2.809664879200273191e-01,1.328192594907013913e-01
3.490582000000000335e+03,2.796100148565408006e-01,1.188000948976730697e-01
3.492510999999999967e+03,2.782436741540763592e-01,1.429605305143439864e-01
3.494439000000000306e+03,2.768688824437433027e-01,1.662529292736785180e-01
3.496367999999999938e+03,2.754842135930637426e-01,1.479738170144502263e-01
3.498295999999999822e+03,2.740911032358859245e-01,1.442092523059308462e-01
3.500224999999999909e+03,2.726881062369841402e-01,1.416209059751061261e-01
3.502152999999999793e+03,2.712766772329597842e-01,9.746037640748106412e-02
3.504082000000000335e+03,2.698553520858411048e-01,1.094714372169889316e-01
3.506010000000000218e+03,2.684256044349719872e-01,1.417274331287945444e-01
3.507939000000000306e+03,2.669859511396328600e-01,1.388619387969880492e-01
3.509867000000000189e+03,2.655378848419172044e-01,1.373814226244620684e-01
3.511795999999999822e+03,2.640799033983611821e-01,1.751742317075297706e-01
3.513724000000000160e+03,2.626135184538025413e-01,2.038681634135661724e-01
3.515652999999999793e+03,2.611372088620260712e-01,2.254488167988188962e-01
3.517580999999999676e+03,2.596525052706208925e-01,2.422465517706546834e-01
3.519510000000000218e+03,2.581578675306275272e-01,2.466674532299233391e-01
3.521438000000000102e+03,2.566548452923722579e-01,2.478729024275239112e-01
3.523367000000000189e+03,2.551418794041619975e-01,2.580023469059335994e-01
3.525295000000000073e+03,2.536205385190637429e-01,2.667373220467128547e-01
3.527224000000000160e+03,2.520892444826348111e-01,2.532029181391006745e-01
3.529152000000000044e+03,2.505495849506882422e-01,2.515519763416298460e-01
3.531080999999999676e+03,2.489999627660406389e-01,2.551544660483049398e-01
3.533009000000000015e+03,2.474419845872510848e-01,2.739461743244833158e-01
3.534938000000000102e+03,2.458740342543812574e-01,2.556517038813428400e-01
3.536865999999999985e+03,2.442977374287469416e-01,2.431423615046277575e-01
3.538795000000000073e+03,2.427114589476619955e-01,2.822599431237566847e-01
3.540722999999999956e+03,2.411168434751811418e-01,2.834696459358569953e-01
3.542652000000000044e+03,2.395122368458739714e-01,2.814678218958173161e-01
3.544579999999999927e+03,2.378993027265483562e-01,2.478457892505741000e-01
3.546509000000000015e+03,2.362763679490260671e-01,2.448404970996689300e-01
3.548436999999999898e+03,2.346451151828539139e-01,2.664160998426536864e-01
3.550365999999999985e+03,2.330038522571111770e-01,2.251357365510511244e-01
3.552294000000000324e+03,2.313542808440907095e-01,2.279547313679985976e-01
3.554222999999999956e+03,2.296946897701346302e-01,2.742502785402702870e-01
3.556150999999999840e+03,2.280267997102676247e-01,3.067049980946476850e-01
3.558079999999999927e+03,2.263488804880893213e-01,3.742400822573133112e-01
3.560007999999999811e+03,2.246626717813811069e-01,3.967077100396121381e-01
3.561936999999999898e+03,2.229664244109805793e-01,3.683823157343288912e-01
3.563864999999999782e+03,2.212618970574258270e-01,3.601579514508443935e-01
3.565794000000000324e+03,2.195473215388101806e-01,3.606745056369522473e-01
3.567722000000000207e+03,2.178244755384088904e-01,3.566259804826152902e-01
3.569650999999999840e+03,2.160915718715745726e-01,3.875380463074336035e-01
3.571579000000000178e+03,2.143504072243267444e-01,4.849377362290683280e-01
3.573507999999999811e+03,2.125991754092755315e-01,5.037766168306392345e-01
3.575435999999999694e+03,2.108396921151847181e-01,4.418500590055458588e-01
3.577364999999999782e+03,2.090701321519112810e-01,3.714492680645067324e-01
3.579292999999999665e+03,2.072923302109739296e-01,3.143246121294192008e-01
3.581222000000000207e+03,2.055044420994818211e-01,2.524411445445124969e-01
3.583150000000000091e+03,2.037083215116997081e-01,1.661819242759037252e-01
3.585079000000000178e+03,2.019021052519889281e-01,1.560496647279157045e-01
3.587007000000000062e+03,2.000876660173585009e-01,1.229777227598889411e-01
3.588935999999999694e+03,1.982631216094343785e-01,1.042024835845678510e-01
3.590864000000000033e+03,1.964303637279591896e-01,1.525462941789816895e-01
3.592792999999999665e+03,1.945874911718128430e-01,1.537839727329659567e-01
3.594720999999999549e+03,1.927364146434911163e-01,1.356559180199807813e-01
3.596650000000000091e+03,1.908752139391260982e-01,1.276863875448750463e-01
3.598577999999999975e+03,1.890058187639613863e-01,1.165916460683167344e-01
3.600507000000000062e+03,1.871262899113759204e-01,9.944350449270622505e-02
3.602434999999999945e+03,1.852385760893628941e-01,1.410962515501497094e-01
3.604364000000000033e+03,1.833407190885623095e-01,1.238033526381361327e-01
3.606291999999999916e+03,1.814346866197027452e-01,2.397650521829497450e-02
3.608220999999999549e+03,1.795185014706852655e-01,-2.132326263933492783e-02
3.610149000000000342e+03,1.775941503549791634e-01,3.742285381877330508e-02
3.612077999999999975e+03,1.756596370577394595e-01,9.971136309684425214e-02
3.614005999999999858e+03,1.737169672951903721e-01,7.719352891751718460e-02
3.615934999999999945e+03,1.717641258497337731e-01,6.552460948844540667e-03
3.617862999999999829e+03,1.698031374403399241e-01,2.120551922993474392e-02
