wavenumber (/cm),baseline value (/cm),baseline-subtracted absorbance (/cm),
3.290019000000000233e+03,5.932432432432221958e-02,1.776356839400250465e-15
3.291947000000000116e+03,5.888014056323953582e-02,9.715385997805192630e-03
3.293875000000000000e+03,5.843926081263628447e-02,1.624946239332825115e-02
3.295804000000000087e+03,5.800145897143149654e-02,2.221568921123395768e-02
3.297731999999999971e+03,5.756718895548207371e-02,1.563691169689551685e-02
3.299660999999999603e+03,5.713600027721810193e-02,9.336506712529946128e-03
3.301589000000000397e+03,5.670833999592250763e-02,-3.507967209343654247e-03
3.303518000000000029e+03,5.628376448059935200e-02,-7.358321796536060333e-03
3.305447000000000116e+03,5.586249640403995187e-02,1.708624544125392219e-02
3.307375000000000000e+03,5.544475158157613492e-02,1.527099865141590129e-02
3.309302999999999884e+03,5.503031076959086221e-02,2.096223349881487508e-02
3.311231999999999971e+03,5.461896158014756253e-02,3.392623879263911846e-02
3.313159999999999854e+03,5.421113050281700652e-02,2.868542122132122785e-02
3.315089000000000397e+03,5.380639447631452299e-02,9.842254172333753104e-03
3.317017000000000280e+03,5.340517313363779550e-02,-1.330079289132690690e-02
3.318945999999999913e+03,5.300705027007612813e-02,1.035641664511377513e-02
3.320875000000000000e+03,5.261223484527732808e-02,2.997676795062087507e-02
3.322802999999999884e+03,5.222092896143237795e-02,2.556844662104573729e-02
3.324730999999999767e+03,5.183292708806597204e-02,1.005710087092737126e-02
3.326659999999999854e+03,5.144803055038504880e-02,4.292882776734785466e-03
3.328587999999999738e+03,5.106663841167247142e-02,1.050092915589573295e-02
3.330517000000000280e+03,5.068835503693147615e-02,3.936062484037883280e-03
3.332445000000000164e+03,5.031357263287361548e-02,4.331348149977820583e-03
3.334374000000000251e+03,4.994190242107343636e-02,1.012333523037067806e-02
3.336302000000000135e+03,4.957372975167029239e-02,6.452365308907914709e-03
3.338230999999999767e+03,4.920867270281004124e-02,-2.639241202344599913e-03
3.340159000000000106e+03,4.884710976806161398e-02,-8.116448071882942372e-03
3.342087999999999738e+03,4.848866588214217899e-02,1.604441892680519288e-02
3.344015999999999622e+03,4.813371268204935660e-02,2.408157156771739693e-02
3.345945000000000164e+03,4.778188195906896141e-02,1.211187386572110114e-02
3.347873000000000047e+03,4.743353849362996755e-02,-4.869698791859278231e-03
3.349802000000000135e+03,4.708832093359038851e-02,-1.571180648811054681e-02
3.351730000000000018e+03,4.674658720280788771e-02,7.193766944443069633e-03
3.353659000000000106e+03,4.640798280570823664e-02,3.404029305636147029e-02
3.355586999999999989e+03,4.607285880957867619e-02,4.363543569181960180e-02
3.357515999999999622e+03,4.574086757542072945e-02,5.715102431647167691e-02
3.359444000000000415e+03,4.541235331394588570e-02,4.853918443069460409e-02
3.361373000000000047e+03,4.508697524272697876e-02,3.560174796323689606e-02
3.363302000000000135e+03,4.476490461027271550e-02,1.435438709522518508e-02
3.365230000000000018e+03,4.444630580762876093e-02,-5.812568622167724186e-03
3.367157999999999902e+03,4.413101101546512695e-02,-1.118226917017128841e-02
3.369086999999999989e+03,4.381885927012696413e-02,-8.838430565560884133e-03
3.371014999999999873e+03,4.351017421261627049e-02,-1.814204746518033318e-02
3.372944000000000415e+03,4.320463563021892384e-02,-1.382718921828907099e-02
3.374872000000000298e+03,4.290256030736383508e-02,1.320088796849727686e-02
3.376800999999999931e+03,4.260363488790641640e-02,2.819878822486288072e-02
3.378729000000000269e+03,4.230816929970515616e-02,1.977477571427410652e-02
3.380657999999999902e+03,4.201585704318855363e-02,1.636065740229142307e-02
3.382585999999999785e+03,4.172700118964289828e-02,7.138189408317785478e-04
3.384514999999999873e+03,4.144130209606622373e-02,9.535398742703371511e-03
3.386442999999999756e+03,4.115905597717439690e-02,1.988474644593818397e-02
3.388372000000000298e+03,4.087997004653853850e-02,2.468573358813141994e-02
3.390300000000000182e+03,4.060433366230231655e-02,1.689986018671785217e-02
3.392229000000000269e+03,4.033186089460638613e-02,1.858985392366019340e-02
3.394157000000000153e+03,4.006283424502399271e-02,3.085888057324215339e-02
3.396085999999999785e+03,3.979697464026799025e-02,3.295325835134566006e-02
3.398014000000000124e+03,3.953455772534120172e-02,2.285220835108070503e-02
3.399942999999999756e+03,3.927531128352601542e-02,1.463056010510399574e-02
3.401870999999999640e+03,3.901950410325394358e-02,2.768007546327666546e-03
3.403800000000000182e+03,3.876687082437868526e-02,5.013185093608818477e-03
3.405728000000000065e+03,3.851767337876044195e-02,4.220444049011895515e-03
3.407657000000000153e+03,3.827165326282599978e-02,2.630150610343573447e-02
3.409585000000000036e+03,3.802906555186336135e-02,5.976124199706500661e-02
3.411514000000000124e+03,3.778965859886884715e-02,5.613764801809217886e-02
3.413442000000000007e+03,3.755368062256003725e-02,2.749944146504468279e-02
3.415370999999999640e+03,3.732088683250633920e-02,2.353465836786661214e-02
3.417299000000000433e+03,3.709151859085313419e-02,3.112842549115946156e-02
3.419228000000000065e+03,3.686533796373936411e-02,3.892124171939226329e-02
3.421155999999999949e+03,3.664257945673998762e-02,3.535928447615788173e-02
3.423085000000000036e+03,3.642301199256703370e-02,1.560121913511203218e-02
3.425012999999999920e+03,3.620686322022326209e-02,-6.932865084155359625e-03
3.426942000000000007e+03,3.599390891898934797e-02,3.835541220805538387e-03
3.428869999999999891e+03,3.578436988130029306e-02,2.949149218766589087e-02
3.430799000000000433e+03,3.557802874300719509e-02,4.571926855429087055e-02
3.432727000000000317e+03,3.537509943997285689e-02,3.226422954418328715e-02
3.434655999999999949e+03,3.517537146462057507e-02,3.700915789232173125e-02
3.436584000000000287e+03,3.497905189624006539e-02,4.056894437589431135e-02
3.438512999999999920e+03,3.478593708382859973e-02,2.121126701682385374e-02
3.440440999999999804e+03,3.459622725010369493e-02,4.310173405297490490e-05
3.442369999999999891e+03,3.440972560063126906e-02,-2.689986668009680670e-04
3.444297999999999774e+03,3.422662550156108097e-02,4.095834889864313766e-03
3.446227000000000317e+03,3.404673701502947125e-02,1.179855655440231743e-02
3.448155000000000200e+03,3.387024665061399986e-02,2.665445046029013554e-02
3.450084000000000287e+03,3.369697132702231812e-02,4.530116474007872540e-02
3.452012000000000171e+03,3.352709069726156343e-02,3.421009476406133842e-02
3.453940999999999804e+03,3.336042853661069785e-02,3.361254443636241263e-02
3.455869000000000142e+03,3.319715764150465986e-02,6.086714804349036001e-02
3.457797999999999774e+03,3.303710864379372225e-02,5.065161456217115443e-02
3.459725999999999658e+03,3.288044748334240097e-02,4.916615083911857198e-02
3.461655000000000200e+03,3.272701164857139133e-02,6.307447949774580565e-02
3.463583000000000084e+03,3.257696022277567494e-02,3.330654397107313258e-02
3.465512000000000171e+03,3.243013755094548145e-02,3.020639553386317289e-02
3.467440000000000055e+03,3.228669585980270540e-02,4.014014477393335056e-02
3.469369000000000142e+03,3.214648635091332807e-02,7.209768885877831934e-02
3.471297000000000025e+03,3.200965439442615690e-02,8.520097002309512391e-02
3.473225999999999658e+03,3.187605804847670754e-02,7.165329889467297875e-02
3.475154000000000451e+03,3.174583582664425307e-02,5.036786408015814231e-02
3.477083000000000084e+03,3.161885264363473169e-02,5.155728901526579477e-02
3.479010999999999967e+03,3.149524015645788211e-02,6.232861818464208170e-02
3.480940000000000055e+03,3.137487013638917688e-02,7.387676080489580244e-02
3.482867999999999938e+03,3.125786738386526764e-02,6.652405246701942332e-02
3.484797000000000025e+03,3.114411052673649039e-02,6.551758565220033859e-02
3.486724999999999909e+03,3.103371750886907421e-02,5.813030858619061547e-02
3.488654000000000451e+03,3.092657381468111311e-02,7.243130130181540949e-02
3.490582000000000335e+03,3.082279053146663728e-02,1.052918413417858190e-01
3.492510999999999967e+03,3.072226000021860415e-02,9.946786115542050055e-02
3.494439000000000306e+03,3.062508645165973320e-02,9.075981569186364339e-02
3.496367999999999938e+03,3.053116908335251622e-02,9.224236306949062936e-02
3.498295999999999822e+03,3.044060526944836198e-02,8.621736304369242987e-02
3.500224999999999909e+03,3.035330106408107298e-02,9.043700648484787052e-02
3.502152999999999793e+03,3.026934698483074726e-02,8.002888227891435946e-02
3.504082000000000335e+03,3.018865594240516259e-02,7.394647919272934189e-02
3.506010000000000218e+03,3.011131159780955358e-02,9.006855792688739371e-02
3.507939000000000306e+03,3.003723371832300870e-02,1.041640710347060406e-01
3.509867000000000189e+03,2.996649910838300457e-02,8.849855214977164763e-02
3.511795999999999822e+03,2.989903439183727585e-02,7.805623121860172375e-02
3.513724000000000160e+03,2.983490951655198842e-02,8.761802617776304203e-02
3.515652999999999793e+03,2.977405796294618767e-02,1.092846559233535686e-01
3.517580999999999676e+03,2.971654282231472877e-02,1.322499063855131496e-01
3.519510000000000218e+03,2.966230443164974417e-02,1.358269779541840805e-01
3.521438000000000102e+03,2.961139902567389015e-02,1.129589644412414273e-01
3.523367000000000189e+03,2.956377379794883353e-02,1.083001591004659758e-01
3.525295000000000073e+03,2.951947812662680803e-02,1.202419384623762966e-01
3.527224000000000160e+03,2.947846606184256757e-02,1.331664547210085203e-01
3.529152000000000044e+03,2.944078012517614695e-02,1.290848489521767561e-01
3.531080999999999676e+03,2.940638122333094628e-02,1.173997697552335850e-01
3.533009000000000015e+03,2.937530502131924237e-02,1.003432411110196654e-01
3.534938000000000102e+03,2.934751928241485786e-02,9.453971277723116629e-02
3.536865999999999985e+03,2.932305281505787065e-02,8.291273469659188322e-02
3.538795000000000073e+03,2.930188023909430228e-02,8.442971342353278175e-02
3.540722999999999956e+03,2.928402350639114360e-02,8.124812933610581211e-02
3.542652000000000044e+03,2.926946409336839139e-02,9.302596927103046198e-02
3.544579999999999927e+03,2.925821709532083759e-02,1.051509161758819033e-01
3.546509000000000015e+03,2.925027084523712517e-02,9.013556326473448621e-02
3.548436999999999898e+03,2.924563358184428807e-02,9.355119773222941859e-02
3.550365999999999985e+03,2.924430049470139181e-02,9.759726520893341473e-02
3.552294000000000324e+03,2.924627296596327142e-02,7.789165806851894303e-02
3.554222999999999956e+03,2.925155304176119131e-02,7.463381508498567740e-02
3.556150999999999840e+03,2.926013524767689944e-02,8.825337826583634637e-02
3.558079999999999927e+03,2.927202848641474731e-02,1.006385027344611771e-01
3.560007999999999811e+03,2.928722042698606032e-02,1.144965633567966989e-01
3.561936999999999898e+03,2.930572682866383616e-02,1.225824371974315596e-01
3.563864999999999782e+03,2.932752850388986587e-02,1.445708871531463657e-01
3.565794000000000324e+03,2.935264806850845787e-02,1.638458607851740467e-01
3.567722000000000207e+03,2.938105947838920429e-02,1.704828734200267704e-01
3.569650999999999840e+03,2.941279220594772426e-02,1.826244864520205624e-01
3.571579000000000178e+03,2.944781335048318738e-02,1.937320561742135183e-01
3.573507999999999811e+03,2.948615924098163532e-02,2.029947354468104592e-01
3.575435999999999694e+03,2.952779012017181515e-02,1.692084633747015232e-01
3.577364999999999782e+03,2.957274917361196742e-02,1.216993850295562396e-01
3.579292999999999665e+03,2.962098978745597577e-02,1.043631667829068022e-01
3.581222000000000207e+03,2.967256200383605602e-02,1.071121537463950446e-01
3.583150000000000091e+03,2.972741235233566925e-02,1.071225410493417129e-01
3.585079000000000178e+03,2.978559773165567748e-02,8.897861475669444076e-02
3.587007000000000062e+03,2.984705781480911924e-02,7.527502979003664052e-02
3.588935999999999694e+03,2.991185635706994361e-02,6.331367952363908813e-02
3.590864000000000033e+03,2.997992617487810207e-02,4.877683058187898268e-02
3.592792999999999665e+03,3.005133788007974260e-02,4.812014394657460059e-02
3.594720999999999549e+03,3.012601743254261777e-02,4.296811117882626263e-02
3.596650000000000091e+03,3.020404230068418627e-02,4.348934073752630525e-02
3.598577999999999975e+03,3.028533158780177814e-02,4.979295359393098863e-02
3.600507000000000062e+03,3.036996961888416280e-02,5.520878154607444799e-02
3.602434999999999945e+03,3.045786864065647137e-02,3.644147898282934506e-02
3.604364000000000033e+03,3.054911983467878400e-02,2.974538156327088956e-02
3.606291999999999916e+03,3.064362859110580928e-02,5.659309088699249202e-02
3.608220999999999549e+03,3.074149294806804988e-02,5.693418272760908394e-02
3.610149000000000342e+03,3.084261143915068004e-02,2.588889026831964202e-03
3.612077999999999975e+03,3.094708895905284862e-02,-3.094708895905284862e-02
3.614005999999999858e+03,3.105481718478930730e-02,-1.645556275794923806e-02
3.615934999999999945e+03,3.116590786763318022e-02,3.036065317616820636e-02
3.617862999999999829e+03,3.128024582802435560e-02,3.539170198185370708e-02
