wavenumber (/cm),baseline value (/cm),baseline-subtracted absorbance (/cm),
3.290019000000000233e+03,3.099189189189281990e-01,-9.325873406851314940e-15
3.291947000000000116e+03,3.097325804017003748e-01,-1.528972702931064021e-04
3.293875000000000000e+03,3.095343644946773054e-01,3.705150882769014942e-03
3.295804000000000087e+03,3.093241591464774842e-01,1.730826874025925832e-03
3.297731999999999971e+03,3.091021822993909041e-01,8.141509110304312458e-05
3.299660999999999603e+03,3.088682036869911940e-01,-1.150589521101252899e-03
3.301589000000000397e+03,3.086224658998446557e-01,2.489227301647467527e-04
3.303518000000000029e+03,3.083647140232415040e-01,-4.313455868535154281e-03
3.305447000000000116e+03,3.080950724327031764e-01,-7.654252302228048421e-03
3.307375000000000000e+03,3.078136901552284144e-01,-6.891043370512939248e-03
3.309302999999999884e+03,3.075204304879619599e-01,-5.658361522444810277e-03
3.311231999999999971e+03,3.072151320829590304e-01,-5.046446155652084542e-03
3.313159999999999854e+03,3.068981114756290651e-01,-5.212184169011813140e-03
3.315089000000000397e+03,3.065690398064226940e-01,-7.144995072033033523e-03
3.317017000000000280e+03,3.062282582590327706e-01,-5.858267578697340383e-03
3.318945999999999913e+03,3.058754133256265106e-01,-5.197873717051937348e-03
3.320875000000000000e+03,3.055106786782886275e-01,-5.821023505874656223e-03
3.322802999999999884e+03,3.051342526405704803e-01,-7.079266620066970717e-03
3.324730999999999767e+03,3.047459492130535352e-01,-7.322836445113445336e-03
3.326659999999999854e+03,3.043455577512474974e-01,-6.233721777342271508e-03
3.328587999999999738e+03,3.039334933836705943e-01,-4.327715191685843621e-03
3.330517000000000280e+03,3.035093286576646676e-01,-5.668694920479389054e-03
3.332445000000000164e+03,3.030735033500278064e-01,-6.199318820671262387e-03
3.334374000000000251e+03,3.026255653598219908e-01,-8.167037866811721614e-03
3.336302000000000135e+03,3.021659791121216188e-01,-1.158350008136688203e-02
3.338230999999999767e+03,3.016942678577159143e-01,-1.146500411121120777e-02
3.340159000000000106e+03,3.012109206699520314e-01,-1.131716484516154253e-02
3.342087999999999738e+03,3.007154361513464380e-01,-1.462223950642549397e-02
3.344015999999999622e+03,3.002083280235225971e-01,-1.325585831243225599e-02
3.345945000000000164e+03,2.996890702407135620e-01,-1.447844582319257611e-02
3.347873000000000047e+03,2.991582011728333157e-01,-1.307339222595560457e-02
3.349802000000000135e+03,2.986151701258208391e-01,-1.190035185927840189e-02
3.351730000000000018e+03,2.980605401178770819e-01,-1.136529314676781866e-02
3.353659000000000106e+03,2.974937358066647164e-01,-9.338097409647083680e-03
3.355586999999999989e+03,2.969153448586610011e-01,-7.811896582798905087e-03
3.357515999999999622e+03,2.963247672832487467e-01,-5.292148457526124616e-03
3.359444000000000415e+03,2.957226153951815206e-01,3.780369813326522888e-04
3.361373000000000047e+03,2.951082645555729300e-01,-3.102672756877478122e-03
3.363302000000000135e+03,2.944820240020220581e-01,-7.317065940512179623e-03
3.365230000000000018e+03,2.938442276236301609e-01,-1.376035064320157986e-02
3.367157999999999902e+03,2.931945538554359132e-01,-1.773323046307817563e-02
3.369086999999999989e+03,2.925326564874239921e-01,-2.001727904101180400e-02
3.371014999999999873e+03,2.918592217791733390e-01,-2.106798226379558159e-02
3.372944000000000415e+03,2.911735511469615290e-01,-2.165071796895601253e-02
3.374872000000000298e+03,2.904763554986473650e-01,-2.442043751169498123e-02
3.376800999999999931e+03,2.897669116022321134e-01,-2.857585848014432273e-02
3.378729000000000269e+03,2.890459550138579914e-01,-2.679432407257209547e-02
3.380657999999999902e+03,2.883127378532428509e-01,-2.594367913935657910e-02
3.382585999999999785e+03,2.875680203248087707e-01,-2.587090942080161327e-02
3.384514999999999873e+03,2.868110298999901886e-01,-3.201419858591769696e-02
3.386442999999999756e+03,2.860425514314961504e-01,-3.188504910158007633e-02
3.388372000000000298e+03,2.852617877424776793e-01,-2.901574859988720334e-02
3.390300000000000182e+03,2.844695483339165776e-01,-3.092527992757920785e-02
3.392229000000000269e+03,2.836650113807017703e-01,-3.590639069104684111e-02
3.394157000000000153e+03,2.828490110320842632e-01,-3.641844253255044350e-02
3.396085999999999785e+03,2.820207008146660144e-01,-3.395080333097544312e-02
3.398014000000000124e+03,2.811809395259814437e-01,-2.994422004788299674e-02
3.399942999999999756e+03,2.803288560443633060e-01,-2.580881876570551015e-02
3.401870999999999640e+03,2.794653338156223299e-01,-2.354361899735568642e-02
3.403800000000000182e+03,2.785894770698043033e-01,-2.432573056467868255e-02
3.405728000000000065e+03,2.777021939009962637e-01,-2.528746883109889154e-02
3.407657000000000153e+03,2.768025638909783481e-01,-2.368047628613245692e-02
3.409585000000000036e+03,2.758915197821139031e-01,-2.083466982871229334e-02
3.411514000000000124e+03,2.749681165078925460e-01,-1.967175117704433873e-02
3.413442000000000007e+03,2.740333114589645902e-01,-2.297925740491058022e-02
3.415370999999999640e+03,2.730861349205468969e-01,-2.655211814515112678e-02
3.417299000000000433e+03,2.721275689315554303e-01,-2.800641329315833872e-02
3.419228000000000065e+03,2.711566191289342953e-01,-2.925540757255040702e-02
3.421155999999999949e+03,2.701742921998864233e-01,-2.810719061554367570e-02
3.423085000000000036e+03,2.691795691330618467e-01,-2.166512365309891663e-02
3.425012999999999920e+03,2.681734812639504639e-01,-1.319584845873178480e-02
3.426942000000000007e+03,2.671549849329295512e-01,-1.227520860487762988e-02
3.428869999999999891e+03,2.661251361237546575e-01,-1.374862167827517467e-02
3.430799000000000433e+03,2.650828665285338559e-01,-1.625528032163714443e-02
3.432727000000000317e+03,2.640292567792990042e-01,-1.113736488740713071e-02
3.434655999999999949e+03,2.629632139198747609e-01,-6.169178505149641722e-03
3.436584000000000287e+03,2.618858432305763984e-01,-5.089943882953029686e-03
3.438512999999999920e+03,2.607960271069522662e-01,-3.666483770512485307e-03
3.440440999999999804e+03,2.596948954775939455e-01,2.529144012504147554e-04
3.442369999999999891e+03,2.585813060897734772e-01,2.293810406032825711e-03
3.444297999999999774e+03,2.574564135203516457e-01,5.946195985706115295e-03
3.446227000000000317e+03,2.563190508683277358e-01,4.397631331113149855e-03
3.448155000000000200e+03,2.551703973588459462e-01,4.736405996232928572e-03
3.450084000000000287e+03,2.540092614426185946e-01,7.709284689720874439e-03
3.452012000000000171e+03,2.528368469930768470e-01,9.093255523232368631e-03
3.453940999999999804e+03,2.516519378126531592e-01,1.036670151633067860e-02
3.455869000000000142e+03,2.504557624230479007e-01,1.515187970183529131e-02
3.457797999999999774e+03,2.492470799784207713e-01,2.046214648942656922e-02
3.459725999999999658e+03,2.480271436487555548e-01,2.164200826177564707e-02
3.461655000000000200e+03,2.467946879399285365e-01,2.052684048504804792e-02
3.463583000000000084e+03,2.455509906701998091e-01,2.718433085822491435e-02
3.465512000000000171e+03,2.442947616971764546e-01,3.689908732425895010e-02
3.467440000000000055e+03,2.430273034873842164e-01,4.338276175026756221e-02
3.469369000000000142e+03,2.417473012501574203e-01,5.211290378246147270e-02
3.471297000000000025e+03,2.404560821003052240e-01,6.583375946539771206e-02
3.473225999999999658e+03,2.391523065988785390e-01,7.483837373662893810e-02
3.475154000000000451e+03,2.378373265089663846e-01,8.040778066717502170e-02
3.477083000000000084e+03,2.365097777433362580e-01,8.773439746635647296e-02
3.479010999999999967e+03,2.351710367133641455e-01,9.313558024842549798e-02
3.480940000000000055e+03,2.338197146835341300e-01,8.983079789801307058e-02
3.482867999999999938e+03,2.324572127134985067e-01,9.738528495658504980e-02
3.484797000000000025e+03,2.310821174194686023e-01,1.086727754043894656e-01
3.486724999999999909e+03,2.296958545093730208e-01,1.084197093303287396e-01
3.488654000000000451e+03,2.282969859511396749e-01,1.098418770497922026e-01
3.490582000000000335e+03,2.268869621009841353e-01,1.148558151590344245e-01
3.492510999999999967e+03,2.254643202785544531e-01,1.111386620140826231e-01
3.494439000000000306e+03,2.240305354883318500e-01,1.088296695442871886e-01
3.496367999999999938e+03,2.225841204017022790e-01,1.061418814622308027e-01
3.498295999999999822e+03,2.211265746714197178e-01,1.104158298020192497e-01
3.500224999999999909e+03,2.196563863205867051e-01,1.112299137726098230e-01
3.502152999999999793e+03,2.181750796502441858e-01,1.052014347952359152e-01
3.504082000000000335e+03,2.166811180352148369e-01,1.098761979014111212e-01
3.506010000000000218e+03,2.151760504248088068e-01,1.302554500411745586e-01
3.507939000000000306e+03,2.136583155455760163e-01,1.402587394404446464e-01
3.509867000000000189e+03,2.121294869951064754e-01,1.512265241884911404e-01
3.511795999999999822e+03,2.105879788516773488e-01,1.745434284176607953e-01
3.513724000000000160e+03,2.090353893611478497e-01,1.954408454943972195e-01
3.515652999999999793e+03,2.074701079535117287e-01,2.120256981974670829e-01
3.517580999999999676e+03,2.058937575229258243e-01,2.300754875842505598e-01
3.519510000000000218e+03,2.043047028510898144e-01,2.518686429084628919e-01
3.521438000000000102e+03,2.027045914804403992e-01,2.693149798149927499e-01
3.523367000000000189e+03,2.010917635444045004e-01,2.739837257379815760e-01
3.525295000000000073e+03,1.994678912336951271e-01,2.804827145444970249e-01
3.527224000000000160e+03,1.978312900334557867e-01,2.741808255303834763e-01
3.529152000000000044e+03,1.961836567826829025e-01,2.645470049134956980e-01
3.531080999999999676e+03,1.945232823182472259e-01,2.582567735997391978e-01
3.533009000000000015e+03,1.928518881274108310e-01,2.479216440254314868e-01
3.534938000000000102e+03,1.911677403987752655e-01,2.317390629563038651e-01
3.536865999999999985e+03,1.894725852678753597e-01,2.191741994478744182e-01
3.538795000000000073e+03,1.877646642750399053e-01,2.176910673186229772e-01
3.540722999999999956e+03,1.860457482040835941e-01,2.220325369776499080e-01
3.542652000000000044e+03,1.843140539470446981e-01,2.193569618963850942e-01
3.544579999999999927e+03,1.825713769360248762e-01,2.054435345271619084e-01
3.546509000000000015e+03,1.808159094147896440e-01,1.888914531201590918e-01
3.548436999999999898e+03,1.790494714637063112e-01,1.834677699156039843e-01
3.550365999999999985e+03,1.772702306782676374e-01,1.856645316702878468e-01
3.552294000000000324e+03,1.754800317871243465e-01,1.864715059575168254e-01
3.554222999999999956e+03,1.736770177374822310e-01,2.032167380873084461e-01
3.556150999999999840e+03,1.718630579062825348e-01,2.324677901831861959e-01
3.558079999999999927e+03,1.700362705924405304e-01,2.652563668726104495e-01
3.560007999999999811e+03,1.681985498211737706e-01,3.028666878302708199e-01
3.561936999999999898e+03,1.663479892431354301e-01,3.323137069358024220e-01
3.563864999999999782e+03,1.644865075318051595e-01,3.435880497841314885e-01
3.565794000000000324e+03,1.626121736895633774e-01,3.363104730951524957e-01
3.567722000000000207e+03,1.607269310381767013e-01,3.626281481789708216e-01
3.569650999999999840e+03,1.588288239317350303e-01,4.391171220142111586e-01
3.571579000000000178e+03,1.569198203402848435e-01,4.949152215982057790e-01
3.573507999999999811e+03,1.549979399696432836e-01,4.918510814655849828e-01
3.575435999999999694e+03,1.530651754381295859e-01,4.289012737696986655e-01
3.577364999999999782e+03,1.511195218032881371e-01,3.419513076468514434e-01
3.579292999999999665e+03,1.491629963317180341e-01,2.589767986356634744e-01
3.581222000000000207e+03,1.471935694326695909e-01,1.931251630929593510e-01
3.583150000000000091e+03,1.452132830210359771e-01,1.452368567739319438e-01
3.585079000000000178e+03,1.432200828577947505e-01,9.981346793437673171e-02
3.587007000000000062e+03,1.412160355060940731e-01,5.090512013230252819e-02
3.588935999999999694e+03,1.391990620786529576e-01,4.262200036309904405e-02
3.590864000000000033e+03,1.371712537868958748e-01,6.018941722894766144e-02
3.592792999999999665e+03,1.351305070952477649e-01,5.580611918620626000e-02
3.594720999999999549e+03,1.330789378634307241e-01,4.484091302193737860e-02
3.596650000000000091e+03,1.310144179075862780e-01,5.581876009800579297e-02
3.598577999999999975e+03,1.289390877357021736e-01,6.195094022329117323e-02
3.600507000000000062e+03,1.268507945156578387e-01,5.456020268844286036e-02
3.602434999999999945e+03,1.247517034037137762e-01,5.634149324120718560e-02
3.604364000000000033e+03,1.226396369194695524e-01,5.974992505629961315e-02
3.606291999999999916e+03,1.205167848674655318e-01,4.685600171221748766e-02
3.608220999999999549e+03,1.183809451190178663e-01,2.303005208508279722e-02
3.610149000000000342e+03,1.162343321269503349e-01,2.520182817127869512e-02
3.612077999999999975e+03,1.140747191143063333e-01,2.253012711122925893e-02
3.614005999999999858e+03,1.119043451821752910e-01,1.150385612257753820e-02
3.615934999999999945e+03,1.097209589053278478e-01,1.957074659327417976e-02
3.617862999999999829e+03,1.075268240331439529e-01,9.683800384376883841e-03
