wavenumber (/cm),baseline value (/cm),baseline-subtracted absorbance (/cm),
3.290019000000000233e+03,2.979105312208787382e-01,-3.552713678800500929e-15
3.291947000000000116e+03,2.977989036812012102e-01,-7.261159040008458021e-03
3.293875000000000000e+03,2.976750779564447669e-01,-1.017740787256737889e-02
3.295804000000000087e+03,2.975389803297261437e-01,-1.296209309766638285e-02
3.297731999999999971e+03,2.973907519079688200e-01,-1.777192618569500837e-02
3.299660999999999603e+03,2.972302389272449830e-01,-1.910721935595027787e-02
3.301589000000000397e+03,2.970576078084796734e-01,-1.723095356803128197e-02
3.303518000000000029e+03,2.968726794737506225e-01,-1.438246512146701406e-02
3.305447000000000116e+03,2.966755402969489808e-01,-1.532884877784290723e-02
3.307375000000000000e+03,2.964663019692466150e-01,-2.309724325536066658e-02
3.309302999999999884e+03,2.962448654564759920e-01,-2.351513572674601704e-02
3.311231999999999971e+03,2.960111064137365133e-01,-1.513226205213324960e-02
3.313159999999999854e+03,2.957652672039579045e-01,-1.058726161215961525e-02
3.315089000000000397e+03,2.955070928072167646e-01,-1.433561098056213012e-02
3.317017000000000280e+03,2.952368509004337227e-01,-1.353042033193396776e-02
3.318945999999999913e+03,2.949542611496838163e-01,-1.312481100988982519e-02
3.320875000000000000e+03,2.946594605568577663e-01,-1.642460501165743381e-02
3.322802999999999884e+03,2.943526114411412209e-01,-2.229296558839166664e-02
3.324730999999999767e+03,2.940335641403493128e-01,-2.617708697352760794e-02
3.326659999999999854e+03,2.937021436815889786e-01,-2.248313156602499419e-02
3.328587999999999738e+03,2.933586936837926373e-01,-1.507164801743687832e-02
3.330517000000000280e+03,2.930028578710270892e-01,-1.462447949264866764e-02
3.332445000000000164e+03,2.926350051762298676e-01,-2.210098840083407623e-02
3.334374000000000251e+03,2.922547540094591056e-01,-2.368905037478974407e-02
3.336302000000000135e+03,2.918624986176503455e-01,-1.644311371550610801e-02
3.338230999999999767e+03,2.914578320968743697e-01,-1.924534374645414658e-02
3.340159000000000106e+03,2.910411740080647292e-01,-2.581936599315337588e-02
3.342087999999999738e+03,2.906120921332835394e-01,-2.517593183505528742e-02
3.344015999999999622e+03,2.901710313474694658e-01,-2.437233610049904797e-02
3.345945000000000164e+03,2.897175341186866149e-01,-2.268584725941291680e-02
3.347873000000000047e+03,2.892520706358645555e-01,-2.046083112048791008e-02
3.349802000000000135e+03,2.887741580530729379e-01,-2.486455879864557517e-02
3.351730000000000018e+03,2.882842918732499982e-01,-2.336350902143191632e-02
3.353659000000000106e+03,2.877819639364531668e-01,-2.336071510141213281e-02
3.355586999999999989e+03,2.872676950596222412e-01,-2.963861770640718873e-02
3.357515999999999622e+03,2.867409517688237486e-01,-3.100656220684872011e-02
3.359444000000000415e+03,2.862022801949883899e-01,-2.196090088464330847e-02
3.361373000000000047e+03,2.856511215501811307e-01,-2.358401996583836535e-02
3.363302000000000135e+03,2.850877520633048334e-01,-2.391813416954846616e-02
3.365230000000000018e+03,2.845124732805324186e-01,-2.467183954334650764e-02
3.367157999999999902e+03,2.839249963126881937e-01,-2.916544365658335636e-02
3.369086999999999989e+03,2.833250069598740595e-01,-3.225510947618381863e-02
3.371014999999999873e+03,2.827131272950254015e-01,-3.622757277498855899e-02
3.372944000000000415e+03,2.820887225882025007e-01,-3.704305623219106280e-02
3.374872000000000298e+03,2.814524402263494096e-01,-3.782056697378699539e-02
3.376800999999999931e+03,2.808036201655248476e-01,-3.911489695955960855e-02
3.378729000000000269e+03,2.801429351066673235e-01,-3.767136008336890995e-02
3.380657999999999902e+03,2.794696996918339948e-01,-4.354518897422021695e-02
3.382585999999999785e+03,2.787846119359720376e-01,-3.648638267222548137e-02
3.384514999999999873e+03,2.780869611671334951e-01,-3.532740851102822432e-02
3.386442999999999756e+03,2.773774707142706575e-01,-3.368688357540694511e-02
3.388372000000000298e+03,2.766554045914269011e-01,-3.475232910214476334e-02
3.390300000000000182e+03,2.759215114415525250e-01,-3.443782085441338126e-02
3.392229000000000269e+03,2.751750299647071074e-01,-3.863169352481943264e-02
3.394157000000000153e+03,2.744167341178318509e-01,-4.636920382892206760e-02
3.396085999999999785e+03,2.736458372869776667e-01,-5.174462573059290804e-02
3.398014000000000124e+03,2.728631387430979771e-01,-5.359286847282795918e-02
3.399942999999999756e+03,2.720678265582385791e-01,-4.758506793754868625e-02
3.401870999999999640e+03,2.712607253173544564e-01,-4.108365169200478562e-02
3.403800000000000182e+03,2.704409977784933972e-01,-3.097408258744049903e-02
3.405728000000000065e+03,2.696094938406012886e-01,-2.465888806240990050e-02
3.407657000000000153e+03,2.687653509477314628e-01,-3.155286259731138188e-02
3.409585000000000036e+03,2.679094443128384739e-01,-3.528875465766656561e-02
3.411514000000000124e+03,2.670408860659634342e-01,-3.242765214238563232e-02
3.413442000000000007e+03,2.661605767340624595e-01,-2.453522724664392030e-02
3.415370999999999640e+03,2.652676031331857587e-01,-2.513619586384763238e-02
3.417299000000000433e+03,2.643628911042803509e-01,-2.525198709682374698e-02
3.419228000000000065e+03,2.634455021493984361e-01,-3.074466337959513851e-02
3.421155999999999949e+03,2.625163874234921479e-01,-2.463381519609342263e-02
3.423085000000000036e+03,2.615745831146014666e-01,-1.925771452187063915e-02
3.425012999999999920e+03,2.606210656916871926e-01,-1.972358200110058135e-02
3.426942000000000007e+03,2.596548460287948501e-01,-2.323639309310099321e-02
3.428869999999999891e+03,2.586769259088761430e-01,-2.128177213441162507e-02
3.430799000000000433e+03,2.576862908919750339e-01,-1.379346703363371063e-02
3.432727000000000317e+03,2.566839680750518937e-01,-1.031584132761587114e-02
3.434655999999999949e+03,2.556689177041491234e-01,-1.484505936304980622e-02
3.436584000000000287e+03,2.546421921902179974e-01,-1.611283524706763615e-02
3.438512999999999920e+03,2.536027264653100133e-01,-7.912139326446521181e-03
3.440440999999999804e+03,2.525515982543780069e-01,2.415051938973178380e-04
3.442369999999999891e+03,2.514877171754648089e-01,-2.880075050581076823e-03
3.444297999999999774e+03,2.504121862675283694e-01,3.784458653254496596e-03
3.446227000000000317e+03,2.493238898346064047e-01,-4.537310151475182352e-03
3.448155000000000200e+03,2.482239562296655322e-01,-9.223956229665652984e-03
3.450084000000000287e+03,2.471112444427419064e-01,9.055309533430033753e-04
3.452012000000000171e+03,2.459869081407930480e-01,3.676651971042943501e-03
3.453940999999999804e+03,2.448497809998642083e-01,8.248075477302663217e-03
3.455869000000000142e+03,2.437010420009144696e-01,1.468479210905737631e-02
3.457797999999999774e+03,2.425394995059768632e-01,1.727410720418109946e-02
3.459725999999999658e+03,2.413663578100226914e-01,1.691043622539201152e-02
3.461655000000000200e+03,2.401803999610834239e-01,1.209732604078084250e-02
3.463583000000000084e+03,2.389828555681212663e-01,8.934199417899968410e-03
3.465512000000000171e+03,2.377724823651732322e-01,1.473823524899309234e-02
3.467440000000000055e+03,2.365505352752101942e-01,1.781479557287912741e-02
3.469369000000000142e+03,2.353157467182604989e-01,2.430587490336133527e-02
3.471297000000000025e+03,2.340693969312894751e-01,3.314588731847756264e-02
3.473225999999999658e+03,2.328101930203310133e-01,4.403044071685435767e-02
3.475154000000000451e+03,2.315394405363591090e-01,4.834406365749099876e-02
3.477083000000000084e+03,2.302558212713954333e-01,4.826607994016107739e-02
3.479010999999999967e+03,2.289606660904155433e-01,5.696757249299544412e-02
3.480940000000000055e+03,2.276526314714537591e-01,6.166703302062526149e-02
3.482867999999999938e+03,2.263330735934694360e-01,6.153831503653961477e-02
3.484797000000000025e+03,2.250006236204953325e-01,7.536191132824843208e-02
3.486724999999999909e+03,2.236566630455101290e-01,7.722124934964380572e-02
3.488654000000000451e+03,2.222997977185308116e-01,6.940756481641674469e-02
3.490582000000000335e+03,2.209314344465411750e-01,6.879549938384066365e-02
3.492510999999999967e+03,2.195501537655566437e-01,6.885618360629841561e-02
3.494439000000000306e+03,2.181573877965590214e-01,7.270747706830427148e-02
3.496367999999999938e+03,2.167516917615692762e-01,7.307962231112430374e-02
3.498295999999999822e+03,2.153345230955707734e-01,7.437563533872637578e-02
3.500224999999999909e+03,2.139044117065758144e-01,7.210304402501765964e-02
3.502152999999999793e+03,2.124628403435693258e-01,5.922681482884417647e-02
3.504082000000000335e+03,2.110083136005727056e-01,5.639615983838375257e-02
3.506010000000000218e+03,2.095423395405582312e-01,7.525076390771712198e-02
3.507939000000000306e+03,2.080633974435563971e-01,7.939140218365725588e-02
3.509867000000000189e+03,2.065730206865410423e-01,8.160871277105385957e-02
3.511795999999999822e+03,2.050696632355339943e-01,9.773555577658132876e-02
3.513724000000000160e+03,2.035548837815106538e-01,1.132876138885734463e-01
3.515652999999999793e+03,2.020271109764983919e-01,1.310809971316100331e-01
3.517580999999999676e+03,2.004879288254741709e-01,1.486695735044420985e-01
3.519510000000000218e+03,1.989357406664531425e-01,1.631546600791189405e-01
3.521438000000000102e+03,1.973721558184244884e-01,1.719214136130755577e-01
3.523367000000000189e+03,1.957955523053982461e-01,1.671196387477227319e-01
3.525295000000000073e+03,1.942075647603651589e-01,1.668064147363725880e-01
3.527224000000000160e+03,1.926065458933372554e-01,1.644316647310803958e-01
3.529152000000000044e+03,1.909941556512961824e-01,1.610198238454421116e-01
3.531080999999999676e+03,1.893687214302630650e-01,1.562901788493267219e-01
3.533009000000000015e+03,1.877319284912211117e-01,1.567256670353396331e-01
3.534938000000000102e+03,1.860820789161792277e-01,1.464910804500823005e-01
3.536865999999999985e+03,1.844208832801292886e-01,1.344057709603170281e-01
3.538795000000000073e+03,1.827466183510857434e-01,1.402971840720272922e-01
3.540722999999999956e+03,1.810610200180313711e-01,1.452679641385392628e-01
3.542652000000000044e+03,1.793623397349826121e-01,1.352946966117087868e-01
3.544579999999999927e+03,1.776523387049273595e-01,1.170923024879888530e-01
3.546509000000000015e+03,1.759292430678698338e-01,1.022683338193628444e-01
3.548436999999999898e+03,1.741948393408065954e-01,1.077939770618039361e-01
3.550365999999999985e+03,1.724473283497474085e-01,1.283029046418651120e-01
3.552294000000000324e+03,1.706885219256797370e-01,1.255053270957553480e-01
3.554222999999999956e+03,1.689165955806153363e-01,1.206761350810809930e-01
3.556150999999999840e+03,1.671333864595432317e-01,1.423232771005684683e-01
3.558079999999999927e+03,1.653370447604736171e-01,1.704719021174385674e-01
3.560007999999999811e+03,1.635294329423935267e-01,1.937016947370100439e-01
3.561936999999999898e+03,1.617086758893186982e-01,2.101487332439520017e-01
3.563864999999999782e+03,1.598766613742377274e-01,2.195436554943546170e-01
3.565794000000000324e+03,1.580314889671541323e-01,1.955193032043283097e-01
3.567722000000000207e+03,1.561750717550722811e-01,1.944288425040143764e-01
3.569650999999999840e+03,1.543054839939870249e-01,2.690971255120704342e-01
3.571579000000000178e+03,1.524246640848936352e-01,3.224793433708379453e-01
3.573507999999999811e+03,1.505306609698031650e-01,3.139940361411008851e-01
3.575435999999999694e+03,1.486254383637088949e-01,2.654724181134575645e-01
3.577364999999999782e+03,1.467070198946096582e-01,2.159490844856328806e-01
3.579292999999999665e+03,1.447773945915109550e-01,1.751527079247985341e-01
3.581222000000000207e+03,1.428345607684100571e-01,1.363518325214307936e-01
3.583150000000000091e+03,1.408805327683033681e-01,1.034838661133363757e-01
3.585079000000000178e+03,1.389132835912008090e-01,7.735885061196867696e-02
3.587007000000000062e+03,1.369348528940896870e-01,4.227949938922659356e-02
3.588935999999999694e+03,1.349431883629783613e-01,3.445848917662974742e-02
3.590864000000000033e+03,1.329403549688628061e-01,5.568779041790250517e-02
3.592792999999999665e+03,1.309242750837462665e-01,5.644478363013938349e-02
3.594720999999999549e+03,1.288970389926262783e-01,4.134434031771938578e-02
3.596650000000000091e+03,1.268565437535009721e-01,5.066535745805555990e-02
3.598577999999999975e+03,1.248049049653801035e-01,5.946163743909327337e-02
3.600507000000000062e+03,1.227399943722531361e-01,5.265422743576131381e-02
3.602434999999999945e+03,1.206639528871242817e-01,5.358488215481393979e-02
3.604364000000000033e+03,1.185746269399921005e-01,5.250552217464043991e-02
3.606291999999999916e+03,1.164741827578588129e-01,3.622292814614880285e-02
3.608220999999999549e+03,1.143604414567214178e-01,2.103378035129388479e-02
3.610149000000000342e+03,1.122355945775836972e-01,3.457055640098083416e-02
3.612077999999999975e+03,1.100974379224410882e-01,3.531728714745518971e-02
3.614005999999999858e+03,1.079481883462989344e-01,1.840223103860338938e-02
3.615934999999999945e+03,1.057856163371511116e-01,3.413982634691148377e-02
3.617862999999999829e+03,1.036119640640045247e-01,2.518207135072003666e-02
