wavenumber (/cm),baseline value (/cm),baseline-subtracted absorbance (/cm),
3.290019000000000233e+03,3.025428968928718376e-01,1.776356839400250465e-15
3.291947000000000116e+03,3.021282793192021643e-01,-4.151775995659079399e-03
3.293875000000000000e+03,3.017046226038431200e-01,-5.685918012715784897e-03
3.295804000000000087e+03,3.012716999740998602e-01,-6.815833534155046891e-03
3.297731999999999971e+03,3.008299602870234679e-01,-6.224920868257211026e-03
3.299660999999999603e+03,3.003789453064253934e-01,-3.278156931096454230e-03
3.301589000000000397e+03,2.999191226476316530e-01,-4.048045201348937638e-03
3.303518000000000029e+03,2.994500153161823164e-01,-7.643708313553876366e-03
3.305447000000000116e+03,2.989718594639150240e-01,-9.189049137743765527e-03
3.307375000000000000e+03,2.984849100033670766e-01,-1.283643264983469479e-02
3.309302999999999884e+03,2.979889214011368637e-01,-1.225465026185679207e-02
3.311231999999999971e+03,2.974836293679796739e-01,-9.769917820599438585e-03
3.313159999999999854e+03,2.969695577940303366e-01,-7.276405838550381588e-03
3.315089000000000397e+03,2.964461734100201085e-01,-7.309521686414743868e-03
3.317017000000000280e+03,2.959140188643551994e-01,-6.536989957259820017e-03
3.318945999999999913e+03,2.953725421294919329e-01,-7.159526207401789577e-03
3.320875000000000000e+03,2.948220168738107105e-01,-1.111819866388641387e-02
3.322802999999999884e+03,2.942627355263898181e-01,-1.549012770446989151e-02
3.324730999999999767e+03,2.936944150372848839e-01,-1.436685281746674647e-02
3.326659999999999854e+03,2.931167536007173169e-01,-1.283618473381320513e-02
3.328587999999999738e+03,2.925303501398932582e-01,-8.003375336986806587e-03
3.330517000000000280e+03,2.919345963524744292e-01,-4.091807667979008301e-03
3.332445000000000164e+03,2.913301099199330224e-01,-4.329027836148302555e-03
3.334374000000000251e+03,2.907162637816576023e-01,-7.140749791859857254e-03
3.336302000000000135e+03,2.900936943773988475e-01,-6.225244848877764525e-03
3.338230999999999767e+03,2.894617558882721653e-01,1.074648501896202646e-03
3.340159000000000106e+03,2.888211035122925097e-01,5.621087307128291854e-04
3.342087999999999738e+03,2.881710726723127891e-01,-8.069047629802206245e-03
3.344015999999999622e+03,2.875123373246175618e-01,-5.228367622963414618e-03
3.345945000000000164e+03,2.868442141337812501e-01,-3.282612649780691783e-03
3.347873000000000047e+03,2.861673958143668983e-01,-4.929182798445008729e-03
3.349802000000000135e+03,2.854811802726793246e-01,-1.826055833043405130e-03
3.351730000000000018e+03,2.847862789815458484e-01,3.443439895471911427e-04
3.353659000000000106e+03,2.840819710890070127e-01,-3.275045752787697495e-03
3.355586999999999989e+03,2.833689868261544120e-01,-2.067394617157436443e-03
3.357515999999999622e+03,2.826465865827625379e-01,-2.962709631146864808e-03
3.359444000000000415e+03,2.819155193481943655e-01,-1.972715205358799295e-03
3.361373000000000047e+03,2.811750267539459003e-01,6.080927390206269934e-04
3.363302000000000135e+03,2.804254856388812556e-01,3.563538939879151712e-03
3.365230000000000018e+03,2.796672916025606526e-01,-5.739232303239027999e-04
3.367157999999999902e+03,2.789000584245542314e-01,-6.064225992956639999e-03
3.369086999999999989e+03,2.781233811286014657e-01,-2.986574821598253493e-03
3.371014999999999873e+03,2.773380649788759200e-01,-6.646194904114111068e-05
3.372944000000000415e+03,2.765432953320701159e-01,-2.452245710799161316e-03
3.374872000000000298e+03,2.757398962106272222e-01,-1.465665263030935250e-03
3.376800999999999931e+03,2.749270342129683797e-01,3.347815068218906731e-03
3.378729000000000269e+03,2.741055521198063616e-01,5.858120781724540649e-03
3.380657999999999902e+03,2.732745977712962571e-01,2.247121196086609984e-03
3.382585999999999785e+03,2.724350327064151145e-01,1.839971158170250476e-03
3.384514999999999873e+03,2.715859860070501952e-01,3.824432913957398483e-03
3.386442999999999756e+03,2.707283379704517046e-01,5.363793734603383712e-03
3.388372000000000298e+03,2.698611989202337469e-01,1.853903877726104099e-03
3.390300000000000182e+03,2.689854679119196845e-01,1.509198960857993654e-03
3.392229000000000269e+03,2.681002365108486885e-01,-2.796480134283019225e-03
3.394157000000000153e+03,2.672064225308119489e-01,-3.787810689723780655e-03
3.396085999999999785e+03,2.663030987788861381e-01,7.945979284871285131e-04
3.398014000000000124e+03,2.653912018271338269e-01,2.885193288030940550e-03
3.399942999999999756e+03,2.644697857243567540e-01,7.093825343814863515e-03
3.401870999999999640e+03,2.635398058008835420e-01,1.191080480353745585e-02
3.403800000000000182e+03,2.626002973472552071e-01,1.231700053495243807e-02
3.405728000000000065e+03,2.616522344520646470e-01,1.095404163388380425e-02
3.407657000000000153e+03,2.606946336475814974e-01,4.785347802410910845e-03
3.409585000000000036e+03,2.597284877806718129e-01,5.244460124723460126e-03
3.411514000000000124e+03,2.587527946253356248e-01,4.879142304638595107e-03
3.413442000000000007e+03,2.577685657867085922e-01,4.141312092407201106e-03
3.415370999999999640e+03,2.567747802805211421e-01,2.780792450967517482e-03
3.417299000000000433e+03,2.557724684701749851e-01,8.546938729958597492e-05
3.419228000000000065e+03,2.547605906131309439e-01,-6.931714434432745264e-03
3.421155999999999949e+03,2.537401958310674388e-01,-1.113005516017517849e-02
3.423085000000000036e+03,2.527102256231721356e-01,1.279571872577101033e-03
3.425012999999999920e+03,2.516717478693895060e-01,1.044063426076968781e-02
3.426942000000000007e+03,2.506236853106411644e-01,8.056172472632905368e-03
3.428869999999999891e+03,2.495671245851394104e-01,2.671243014180202380e-03
3.430799000000000433e+03,2.485009696755398068e-01,-2.979947921843972836e-05
3.432727000000000317e+03,2.474263259783207047e-01,1.408115202696791357e-03
3.434655999999999949e+03,2.463420787178645099e-01,2.735058397609346770e-03
3.436584000000000287e+03,2.452493520489280598e-01,4.429114483766483090e-03
3.438512999999999920e+03,2.441470124376206030e-01,7.865167013503260307e-04
3.440440999999999804e+03,2.430362027969650285e-01,2.548777409856484155e-04
3.442369999999999891e+03,2.419157708348045333e-01,2.436524728651967564e-03
3.444297999999999774e+03,2.407868782224298343e-01,3.713044485871730416e-03
3.446227000000000317e+03,2.396483539094145243e-01,-3.165126208069413138e-03
3.448155000000000200e+03,2.385013783253224773e-01,-7.325771585486418047e-03
3.450084000000000287e+03,2.373447616614541289e-01,4.300005690532238134e-03
3.452012000000000171e+03,2.361797031056429574e-01,8.834209400154335867e-03
3.453940999999999804e+03,2.350049940909251234e-01,4.059003435740393684e-03
3.455869000000000142e+03,2.338218525633930511e-01,3.021554454693209379e-03
3.457797999999999774e+03,2.326290511978221787e-01,3.966249466886839770e-03
3.459725999999999658e+03,2.314278266985745347e-01,1.181224131812097511e-02
3.461655000000000200e+03,2.302169329821452948e-01,1.178878660357129959e-02
3.463583000000000084e+03,2.289976255111820791e-01,1.003931992087858660e-02
3.465512000000000171e+03,2.277686394439033535e-01,1.296254002742136535e-02
3.467440000000000055e+03,2.265312490012192370e-01,1.734029219525590193e-02
3.469369000000000142e+03,2.252841705830856966e-01,2.012934000587707217e-02
3.471297000000000025e+03,2.240286971686824558e-01,1.588937363051368123e-02
3.473225999999999658e+03,2.227635263996958770e-01,1.584986052254899747e-02
3.475154000000000451e+03,2.214899700135735117e-01,2.277266717919212979e-02
3.477083000000000084e+03,2.202067068937374472e-01,3.197446484841748315e-02
3.479010999999999967e+03,2.189150675358977338e-01,2.804736869845081415e-02
3.480940000000000055e+03,2.176137120652050783e-01,1.213586283045087200e-02
3.482867999999999938e+03,2.163039897356462404e-01,1.125668424796844036e-02
3.484797000000000025e+03,2.149845419141023228e-01,1.849203870113980130e-02
3.486724999999999909e+03,2.136567366128261369e-01,1.741298049955597449e-02
3.488654000000000451e+03,2.123191964404256282e-01,1.996709201219504237e-02
3.490582000000000335e+03,2.109733081674338706e-01,2.407074810092257877e-02
3.492510999999999967e+03,2.096176756441820999e-01,2.737026685079424482e-02
3.494439000000000306e+03,2.082537043994694415e-01,2.893906109751664957e-02
3.496367999999999938e+03,2.068799795253646323e-01,2.998893375334921174e-02
3.498295999999999822e+03,2.054979253089328495e-01,3.663532557992210670e-02
3.500224999999999909e+03,2.041061080839750019e-01,3.290193025270760074e-02
3.502152999999999793e+03,2.027059708958240947e-01,2.056346796644215047e-02
3.504082000000000335e+03,2.012960613200167614e-01,2.168430658846975945e-02
3.506010000000000218e+03,1.998778411601467297e-01,3.879737912119507470e-02
3.507939000000000306e+03,1.984498392334845818e-01,4.170938166619064802e-02
3.509867000000000189e+03,1.970135361018972020e-01,3.906854768230472175e-02
3.511795999999999822e+03,1.955674418243820156e-01,4.696154256269524652e-02
3.513724000000000160e+03,1.941130557210755114e-01,6.274271796883024166e-02
3.515652999999999793e+03,1.926488690927072867e-01,6.756291016220039580e-02
3.517580999999999676e+03,1.911764000176834344e-01,6.655199695248237290e-02
3.519510000000000218e+03,1.896941210384586185e-01,6.645520652376113446e-02
3.521438000000000102e+03,1.882035689917174182e-01,5.894900482185505552e-02
3.523367000000000189e+03,1.867031976616413402e-01,5.310434600816860140e-02
3.525295000000000073e+03,1.851945626431810155e-01,5.610625664882729069e-02
3.527224000000000160e+03,1.836760989622518991e-01,4.729623060955212566e-02
3.529152000000000044e+03,1.821493809720742263e-01,5.277564608002016655e-02
3.531080999999999676e+03,1.806128249402938479e-01,7.074982771081117505e-02
3.533009000000000015e+03,1.790680239783970507e-01,8.055324669713259667e-02
3.534938000000000102e+03,1.775133755957600812e-01,7.400386045308815497e-02
3.536865999999999985e+03,1.759504916621477122e-01,7.009758377455055367e-02
3.538795000000000073e+03,1.743777509286594807e-01,7.721523098508331628e-02
3.540722999999999956e+03,1.727967840233244345e-01,7.904121257584106885e-02
3.542652000000000044e+03,1.712059509389831646e-01,7.149307518561132113e-02
3.544579999999999927e+03,1.696069010619307704e-01,4.827685222296640433e-02
3.546509000000000015e+03,1.679979756267364621e-01,3.872021883917797780e-02
3.548436999999999898e+03,1.663808427779667198e-01,5.661034596836200805e-02
3.550365999999999985e+03,1.647538249919193731e-01,6.878922648435237264e-02
3.552294000000000324e+03,1.631186091714287301e-01,6.571196742464469054e-02
3.554222999999999956e+03,1.614734990345301213e-01,7.803956326257965870e-02
3.556150999999999840e+03,1.598202002423221302e-01,9.364710536905507254e-02
3.558079999999999927e+03,1.581569977545687067e-01,9.596806021420523081e-02
3.560007999999999811e+03,1.564856159906433675e-01,9.665551865149657473e-02
3.561936999999999898e+03,1.548043211520351292e-01,9.830666972754498190e-02
3.563864999999999782e+03,1.531148564163924419e-01,8.832740668455052457e-02
3.565794000000000324e+03,1.514154692269329416e-01,4.452285199736794041e-02
3.567722000000000207e+03,1.497079215195711299e-01,4.078751827019555520e-02
3.569650999999999840e+03,1.479904419792568149e-01,1.019971913489237103e-01
3.571579000000000178e+03,1.462648113001776551e-01,1.375070236047539751e-01
3.573507999999999811e+03,1.445292394090103016e-01,1.414114005662563400e-01
3.575435999999999694e+03,1.427855257582137938e-01,1.315064822801232935e-01
3.577364999999999782e+03,1.410318615161916256e-01,1.254312703434470322e-01
3.579292999999999665e+03,1.392700648936777696e-01,1.094368449842018087e-01
3.581222000000000207e+03,1.374983083008025631e-01,9.794070854878800247e-02
3.583150000000000091e+03,1.357184287065678063e-01,8.578412191949524868e-02
3.585079000000000178e+03,1.339285797628413377e-01,4.741706871451301097e-02
3.587007000000000062e+03,1.321306171968874565e-01,-1.348863234606012540e-02
3.588935999999999694e+03,1.303226759023115022e-01,1.471596994712465190e-02
3.590864000000000033e+03,1.285066303646367203e-01,6.227401579396607545e-02
3.592792999999999665e+03,1.266805967192059512e-01,5.336500538312849429e-02
3.594720999999999549e+03,1.248464682098155976e-01,3.601842590055737148e-02
3.596650000000000091e+03,1.230023422135300137e-01,4.842368963065002418e-02
3.598577999999999975e+03,1.211501307324205357e-01,5.205206435182763158e-02
3.600507000000000062e+03,1.192879123852819134e-01,4.058610214555757878e-02
3.602434999999999945e+03,1.174176179324550873e-01,5.310178228396189581e-02
3.604364000000000033e+03,1.155373072344634267e-01,6.558264948218539558e-02
3.606291999999999916e+03,1.136489298099210288e-01,4.508348632858583116e-02
3.608220999999999549e+03,1.117505267610745534e-01,2.533866785942295863e-02
3.610149000000000342e+03,1.098440663648112547e-01,3.730773453177249621e-02
3.612077999999999975e+03,1.079275709651152937e-01,2.440509250682820763e-02
3.614005999999999858e+03,1.060030275971328706e-01,1.160092973784943027e-02
3.615934999999999945e+03,1.040684398465820948e-01,3.047244746212118827e-02
3.617862999999999829e+03,1.021258135068805473e-01,9.773243534393571963e-03
