wavenumber (/cm),baseline value (/cm),baseline-subtracted absorbance (/cm),
3.290019000000000233e+03,3.261678775699436983e-01,5.329070518200751394e-15
3.291947000000000116e+03,3.260178716093591333e-01,-3.680392818688282830e-02
3.293875000000000000e+03,3.258590816364144160e-01,-4.433025183273464620e-02
3.295804000000000087e+03,3.256914184559551728e-01,-3.987136495838150552e-03
3.297731999999999971e+03,3.255150559022723655e-01,2.977633380247279860e-02
3.299660999999999603e+03,3.253298110266626963e-01,6.272445890944666758e-03
3.301589000000000397e+03,3.251358758922417991e-01,9.778330322011363762e-03
3.303518000000000029e+03,3.249330493214852567e-01,1.594962187962778444e-02
3.305447000000000116e+03,3.247214296239615550e-01,2.931551580809887980e-02
3.307375000000000000e+03,3.245011333404193010e-01,4.034196451087179724e-02
3.309302999999999884e+03,3.242720530445204474e-01,4.388917743932552185e-02
3.311231999999999971e+03,3.240340630834683822e-01,1.677904558866050166e-02
3.313159999999999854e+03,3.237874102068314386e-01,-5.012483633945130634e-03
3.315089000000000397e+03,3.235318385506307237e-01,4.910733717107262919e-03
3.317017000000000280e+03,3.232676130932539138e-01,3.332459590349934331e-02
3.318945999999999913e+03,3.229944597419045493e-01,5.495576440402238916e-02
3.320875000000000000e+03,3.227125132637880256e-01,4.139708636521266527e-02
3.322802999999999884e+03,3.224219266572934117e-01,5.764145253578156769e-02
3.324730999999999767e+03,3.221225560384368691e-01,7.172347889741015337e-02
3.326659999999999854e+03,3.218142392967919818e-01,1.515979069238682087e-02
3.328587999999999738e+03,3.214972960971991256e-01,-2.808163310060507456e-03
3.330517000000000280e+03,3.211713976604055887e-01,2.864310226230326606e-02
3.332445000000000164e+03,3.208368818800728661e-01,2.558219371120884489e-02
3.334374000000000251e+03,3.204934017481324560e-01,4.604393014242358362e-02
3.336302000000000135e+03,3.201413133870598671e-01,7.533325764401244129e-02
3.338230999999999767e+03,3.197802515599725837e-01,8.181118451979241257e-02
3.340159000000000106e+03,3.194105906181619048e-01,7.143575348448116813e-02
3.342087999999999738e+03,3.190319470959224191e-01,2.533116930537637757e-02
3.344015999999999622e+03,3.186447135733754266e-01,-1.890209493061867363e-02
3.345945000000000164e+03,3.182484883559890676e-01,-4.018850999766510057e-02
3.347873000000000047e+03,3.178436822527022088e-01,-5.385806228587419753e-03
3.349802000000000135e+03,3.174298753401689765e-01,1.956347757372878249e-02
3.351730000000000018e+03,3.170074966561422514e-01,1.476016449705053191e-02
3.353659000000000106e+03,3.165761080484585932e-01,4.079133668797663148e-02
3.355586999999999989e+03,3.161361567836937780e-01,4.118568585040716101e-02
3.357515999999999622e+03,3.156871864808632466e-01,5.851284443581583616e-02
3.359444000000000415e+03,3.152296626353603415e-01,5.954619143791273217e-02
3.361373000000000047e+03,3.147631106373811605e-01,5.836797608390487113e-02
3.363302000000000135e+03,3.142877655126365966e-01,5.253709149772056719e-02
3.365230000000000018e+03,3.138038805180141111e-01,8.567428803364585121e-03
3.367157999999999902e+03,3.133112115110314733e-01,3.498682527981689105e-02
3.369086999999999989e+03,3.128094961227549931e-01,3.817751887183451487e-02
3.371014999999999873e+03,3.122992545350342652e-01,3.497544016275533352e-02
3.372944000000000415e+03,3.117799574516126881e-01,6.051174141992898825e-02
3.374872000000000298e+03,3.112521432831520940e-01,6.324932525912707604e-02
3.376800999999999931e+03,3.107152645045818673e-01,4.929632925024840517e-02
3.378729000000000269e+03,3.101698777553849595e-01,5.190385852533818678e-02
3.380657999999999902e+03,3.096154172816660832e-01,3.980566789378681136e-02
3.382585999999999785e+03,3.090524579517293091e-01,1.909022252438763445e-02
3.384514999999999873e+03,3.084804157828635596e-01,1.034243164332160347e-02
3.386442999999999756e+03,3.078998838721833664e-01,4.019101116569068211e-02
3.388372000000000298e+03,3.073102600081707436e-01,4.414282393061519372e-02
3.390300000000000182e+03,3.067121555167542368e-01,3.220600705227560923e-03
3.392229000000000269e+03,3.061049499575929644e-01,-3.076486648255727374e-02
3.394157000000000153e+03,3.054892728854383677e-01,-9.873258045432820040e-03
3.396085999999999785e+03,3.048644856311284457e-01,1.155768162810755229e-02
3.398014000000000124e+03,3.042312359782339826e-01,1.914486542847537720e-02
3.399942999999999756e+03,3.035888670287771873e-01,1.670833079431055523e-03
3.401870999999999640e+03,3.029380447951446342e-01,-8.157553219940716360e-03
3.403800000000000182e+03,3.022780941505391894e-01,2.941923155667947043e-02
3.405728000000000065e+03,3.016096993361649936e-01,3.135907481749100612e-02
3.407657000000000153e+03,3.009321669964108992e-01,-4.322953825906417080e-03
3.409585000000000036e+03,3.002461996013021661e-01,-1.605621660547562612e-02
3.411514000000000124e+03,2.995510855664011984e-01,-1.462296684635155941e-02
3.413442000000000007e+03,2.988475455905508227e-01,-1.157439672673898912e-02
3.415370999999999640e+03,2.981348498605012054e-01,-1.296080344347139146e-03
3.417299000000000433e+03,2.974137373039091869e-01,1.461285104050347172e-02
3.419228000000000065e+03,2.966834598787144728e-01,-1.793987008100295100e-03
3.421155999999999949e+03,2.959447747413861407e-01,7.086605688355618327e-03
3.423085000000000036e+03,2.951969156210392242e-01,3.518104078644235244e-02
3.425012999999999920e+03,2.944406579029728022e-01,8.875999134729806173e-02
3.426942000000000007e+03,2.936752170874790124e-01,1.148701531397584574e-01
3.428869999999999891e+03,2.929013867886745004e-01,7.409119320823442933e-02
3.430799000000000433e+03,2.921183642780320611e-01,3.833070049241182886e-02
3.432727000000000317e+03,2.913269613984876827e-01,3.686673159888442797e-02
3.434655999999999949e+03,2.905263571926965938e-01,4.672669582940880417e-02
3.436584000000000287e+03,2.897173817324123490e-01,2.607099359607722988e-02
3.438512999999999920e+03,2.888991958314743869e-01,5.618503967568244661e-03
3.440440999999999804e+03,2.880726477904520522e-01,1.898348189159904109e-04
3.442369999999999891e+03,2.872368801943672167e-01,-2.840089317937266600e-02
3.444297999999999774e+03,2.863927595726067921e-01,-3.117711573275450121e-02
3.446227000000000317e+03,2.855394102813715307e-01,2.891722907556104616e-02
3.448155000000000200e+03,2.846777170788730160e-01,8.633866876128859502e-02
3.450084000000000287e+03,2.838067860924873287e-01,7.670565787103189592e-02
3.452012000000000171e+03,2.829275203092489477e-01,6.239401315805714887e-02
3.453940999999999804e+03,2.820390076277217162e-01,4.499453696958877202e-02
3.455869000000000142e+03,2.811421692637434688e-01,5.240088221252747758e-02
3.457797999999999774e+03,2.802360748870640350e-01,8.911467484241519799e-02
3.459725999999999658e+03,2.793216639423476977e-01,9.575794650749003267e-02
3.461655000000000200e+03,2.783979878705196143e-01,7.082368472184441544e-02
3.463583000000000084e+03,2.774660043450651870e-01,6.568517821792685396e-02
3.465512000000000171e+03,2.765247465780920066e-01,7.000640197655361163e-02
3.467440000000000055e+03,2.755751904718941603e-01,9.959407834863398534e-02
3.469369000000000142e+03,2.746163510097723304e-01,1.058605387722657554e-01
3.471297000000000025e+03,2.736492223228399467e-01,5.876382451592920830e-02
3.473225999999999658e+03,2.726728011655676909e-01,8.080146069870863812e-02
3.475154000000000451e+03,2.716880998978972173e-01,1.147162902705991527e-01
3.477083000000000084e+03,2.706940970454780881e-01,1.344674426051639671e-01
3.479010999999999967e+03,2.696918231970659718e-01,1.591828096673637560e-01
3.480940000000000055e+03,2.686802386495017458e-01,1.297723815390900981e-01
3.482867999999999938e+03,2.676603922203515395e-01,1.166192491461659486e-01
3.484797000000000025e+03,2.666312259776351112e-01,1.369891171975075039e-01
3.486724999999999909e+03,2.655938069677450386e-01,1.521446379232731516e-01
3.488654000000000451e+03,2.645470590298817370e-01,1.419562645131691170e-01
3.490582000000000335e+03,2.634920674392553508e-01,1.196413380329977016e-01
3.492510999999999967e+03,2.624277378062433996e-01,1.466741326528699929e-01
3.494439000000000306e+03,2.613551736348789234e-01,1.733642574982177109e-01
3.496367999999999938e+03,2.602732623067183226e-01,1.653945379715313635e-01
3.498295999999999822e+03,2.591831255546139801e-01,1.637075839831823032e-01
3.500224999999999909e+03,2.580836325313047297e-01,1.590063350061816649e-01
3.502152999999999793e+03,2.569759231984605208e-01,1.212981531657382206e-01
3.504082000000000335e+03,2.558588484800043972e-01,1.362782669937940838e-01
3.506010000000000218e+03,2.547335665664203219e-01,1.642399996725654177e-01
3.507939000000000306e+03,2.535989101528191014e-01,1.605825707561301385e-01
3.509867000000000189e+03,2.524560556584969362e-01,1.580293362104159272e-01
3.511795999999999822e+03,2.513038175497452897e-01,1.922315047566387491e-01
3.513724000000000160e+03,2.501433904746832582e-01,2.178972649589230315e-01
3.515652999999999793e+03,2.489735706707829621e-01,2.459182209507968508e-01
3.517580999999999676e+03,2.477955710149828406e-01,2.651245093683840537e-01
3.519510000000000218e+03,2.466081695159356713e-01,2.640804995210093153e-01
3.521438000000000102e+03,2.454125972793956834e-01,2.557946990569774925e-01
3.523367000000000189e+03,2.442076140852016408e-01,2.613287903049670291e-01
3.525295000000000073e+03,2.429944692679235629e-01,2.768532660852995875e-01
3.527224000000000160e+03,2.417719043785790944e-01,2.716853533119447661e-01
3.529152000000000044e+03,2.405411869805629266e-01,2.694642234383577417e-01
3.531080999999999676e+03,2.393010403960733612e-01,2.682441752477666697e-01
3.533009000000000015e+03,2.380527504173155506e-01,2.842435859561573963e-01
3.534938000000000102e+03,2.367950221376773356e-01,2.719860877711193226e-01
3.536865999999999985e+03,2.355291595781796588e-01,2.691145256900222549e-01
3.538795000000000073e+03,2.342538496033945705e-01,3.051517772322833721e-01
3.540722999999999956e+03,2.329704144631605800e-01,3.011407309998164195e-01
3.542652000000000044e+03,2.316775227932268422e-01,2.910361887541537129e-01
3.544579999999999927e+03,2.303765150722512089e-01,2.578040383363129351e-01
3.546509000000000015e+03,2.290660417071688215e-01,2.569279295403186225e-01
3.548436999999999898e+03,2.277474614054568747e-01,2.804555065957794469e-01
3.550365999999999985e+03,2.264194063452258376e-01,2.435612707300567337e-01
3.552294000000000324e+03,2.250832534627740245e-01,2.465947493197271356e-01
3.554222999999999956e+03,2.237376167073943378e-01,2.847868847611483289e-01
3.556150999999999840e+03,2.223838912442044347e-01,3.164868770352828875e-01
3.558079999999999927e+03,2.210206727936796511e-01,3.931399393565753186e-01
3.560007999999999811e+03,2.196493747497498816e-01,4.173439781641476998e-01
3.561936999999999898e+03,2.182685746040728958e-01,3.804955311309710098e-01
3.563864999999999782e+03,2.168797039794050363e-01,3.727145146015198307e-01
3.565794000000000324e+03,2.154813221385811772e-01,3.777479250402722144e-01
3.567722000000000207e+03,2.140748789331752278e-01,3.676981926389375488e-01
3.569650999999999840e+03,2.126589153972027191e-01,3.931650141127693843e-01
3.571579000000000178e+03,2.112348996110604560e-01,4.848920133584861958e-01
3.573507999999999811e+03,2.098013543799392977e-01,5.029162217523843736e-01
3.575435999999999694e+03,2.083597660130553919e-01,4.454398939034689420e-01
3.577364999999999782e+03,2.069086390867855840e-01,3.787166507570853824e-01
3.579292999999999665e+03,2.054494781391635883e-01,3.188023382157600949e-01
3.581222000000000207e+03,2.039807695177469071e-01,2.557170199396656685e-01
3.583150000000000091e+03,2.025040359893850450e-01,1.646755899187919425e-01
3.585079000000000178e+03,2.010177456728232670e-01,1.478491580217200507e-01
3.587007000000000062e+03,1.995234395637215385e-01,1.175866238154714694e-01
3.588935999999999694e+03,1.980195675520093346e-01,1.100110399607450162e-01
3.590864000000000033e+03,1.965076888621677398e-01,1.594770073814562039e-01
3.592792999999999665e+03,1.949862351553122153e-01,1.586603871974467950e-01
3.594720999999999549e+03,1.934567838847289778e-01,1.433302001931817671e-01
3.596650000000000091e+03,1.919177484827212510e-01,1.372737803470824858e-01
3.598577999999999975e+03,1.903707246314034762e-01,1.222347785375550444e-01
3.600507000000000062e+03,1.888141075342488762e-01,1.033894788005786936e-01
3.602434999999999945e+03,1.872495111021930114e-01,1.463631029030620923e-01
3.604364000000000033e+03,1.856753123098897618e-01,1.286553415778834975e-01
3.606291999999999916e+03,1.840931432970904780e-01,2.551035028769810253e-02
3.608220999999999549e+03,1.825013628096421314e-01,-2.510377431064725329e-02
3.610149000000000342e+03,1.809016212161047577e-01,3.306112418504003614e-02
3.612077999999999975e+03,1.792922590335077615e-01,9.386356103141757501e-02
3.614005999999999858e+03,1.776749448592305214e-01,7.529073762647087165e-02
3.615934999999999945e+03,1.760480009814848756e-01,1.573821017943632938e-02
3.617862999999999829e+03,1.744131142264713219e-01,2.757019076657218903e-02
