wavenumber (/cm),baseline value (/cm),baseline-subtracted absorbance (/cm),
3.290019000000000233e+03,5.077805219012159199e-01,-4.551914400963141816e-15
3.291947000000000116e+03,5.066281960988181510e-01,5.878327666326232936e-03
3.293875000000000000e+03,5.054679471145586689e-01,4.727299856550293278e-03
3.295804000000000087e+03,5.042991669941780941e-01,9.446872148413221204e-03
3.297731999999999971e+03,5.031230675366646921e-01,1.373107971403453309e-02
3.299660999999999603e+03,5.019384287218287000e-01,1.558393847295247436e-02
3.301589000000000397e+03,5.007464787910578252e-01,1.671065075227884389e-02
3.303518000000000029e+03,4.995459812817699685e-01,2.594563102018743184e-02
3.305447000000000116e+03,4.983375523694189013e-01,3.166011771445831346e-02
3.307375000000000000e+03,4.971218246739965707e-01,2.597929368574269926e-02
3.309302999999999884e+03,4.958981737967160797e-01,1.941450094699359585e-02
3.311231999999999971e+03,4.946659588985138356e-01,2.734196281630463243e-02
3.313159999999999854e+03,4.934264575479776482e-01,3.255816500561070637e-02
3.315089000000000397e+03,4.921783839553217632e-01,3.787613608195694592e-02
3.317017000000000280e+03,4.909230321315281032e-01,3.404761092532193612e-02
3.318945999999999913e+03,4.896590998444150244e-01,2.999653855260275837e-02
3.320875000000000000e+03,4.883872361542440643e-01,4.036532675349147059e-02
3.322802999999999884e+03,4.871081065658007248e-01,4.338257376970722223e-02
3.324730999999999767e+03,4.858210537954974484e-01,4.585322393050461631e-02
3.326659999999999854e+03,4.845254041194753114e-01,5.693265739031050376e-02
3.328587999999999738e+03,4.832225008759145624e-01,5.618803034496189230e-02
3.330517000000000280e+03,4.819109925054352317e-01,5.641845763435993089e-02
3.332445000000000164e+03,4.805922387886205627e-01,5.680151703616964642e-02
3.334374000000000251e+03,4.792648717236875910e-01,6.832646098833505821e-02
3.336302000000000135e+03,4.779302675336172257e-01,7.005062715417420538e-02
3.338230999999999767e+03,4.765870417742288367e-01,6.145909056500686862e-02
3.340159000000000106e+03,4.752365871109009987e-01,5.480861326188557481e-02
3.342087999999999738e+03,4.738775026570571924e-01,6.211923546037068089e-02
3.344015999999999622e+03,4.725111975204754344e-01,6.024975308530289286e-02
3.345945000000000164e+03,4.711362543721762108e-01,6.651658812549399169e-02
3.347873000000000047e+03,4.697540987623387565e-01,7.820815659646840334e-02
3.349802000000000135e+03,4.683632969195841156e-01,8.923828742337980291e-02
3.351730000000000018e+03,4.669652908364891886e-01,1.012019971411436403e-01
3.353659000000000106e+03,4.655586302992791303e-01,1.148444451900035856e-01
3.355586999999999989e+03,4.641447737429302833e-01,1.275425515133606913e-01
3.357515999999999622e+03,4.627222545112648078e-01,1.394795162249887754e-01
3.359444000000000415e+03,4.612925474816602645e-01,1.304003695733259027e-01
3.361373000000000047e+03,4.598541695555393716e-01,1.183187102207886587e-01
3.363302000000000135e+03,4.584078602263570446e-01,1.161750847876227288e-01
3.365230000000000018e+03,4.569543754321010454e-01,1.060339749872837301e-01
3.367157999999999902e+03,4.554929674559868857e-01,8.819528976675361509e-02
3.369086999999999989e+03,4.540228721409551582e-01,6.767750064562461088e-02
3.371014999999999873e+03,4.525456136915835259e-01,4.854432107076511738e-02
3.372944000000000415e+03,4.510596596820963811e-01,4.048321077456751294e-02
3.374872000000000298e+03,4.495665507594690524e-01,3.686448372328976486e-02
3.376800999999999931e+03,4.480647380555264903e-01,2.450143156236739284e-02
3.378729000000000269e+03,4.465557786596434653e-01,7.025302421437840117e-03
3.380657999999999902e+03,4.450381072612454858e-01,1.012452088414150797e-02
3.382585999999999785e+03,4.435132973921085409e-01,1.384970353985803815e-02
3.384514999999999873e+03,4.419797672992533677e-01,1.210737156374774859e-02
3.386442999999999756e+03,4.404391069568607264e-01,2.750548215553094700e-03
3.388372000000000298e+03,4.388897181695501359e-01,-4.047686482690715515e-03
3.390300000000000182e+03,4.373332073539017983e-01,-5.067130932652763597e-03
3.392229000000000269e+03,4.357679598721375669e-01,5.113214405588650813e-03
3.394157000000000153e+03,4.341955985832335330e-01,1.121120477184589515e-02
3.396085999999999785e+03,4.326144924070121078e-01,1.448569398627774785e-02
3.398014000000000124e+03,4.310262806448523776e-01,6.504474247971736567e-03
3.399942999999999756e+03,4.294293157741773115e-01,-6.450660071689595654e-04
3.401870999999999640e+03,4.278252535387618849e-01,4.684998092179371021e-03
3.403800000000000182e+03,4.262124299736296251e-01,4.009844024506770133e-03
3.405728000000000065e+03,4.245925172649585022e-01,2.159113676327817366e-03
3.407657000000000153e+03,4.229638350053726015e-01,-1.412576850665980821e-03
3.409585000000000036e+03,4.213280718234440059e-01,-6.034968375168037191e-03
3.411514000000000124e+03,4.196835308694026878e-01,4.455798114754050410e-03
3.413442000000000007e+03,4.180319172142201722e-01,4.406573000132252282e-03
3.415370999999999640e+03,4.163715175657234369e-01,4.076292313121121502e-03
3.417299000000000433e+03,4.147040534372852250e-01,4.417993120159335874e-04
3.419228000000000065e+03,4.130277950943330723e-01,-8.627515504398108881e-03
3.421155999999999949e+03,4.113444804926391640e-01,-4.125002393850496496e-03
3.423085000000000036e+03,4.096523634552315940e-01,2.255837849521546978e-03
3.425012999999999920e+03,4.079531983802819894e-01,-2.255621493049697612e-03
3.426942000000000007e+03,4.062452226484172257e-01,6.691869616261558740e-03
3.428869999999999891e+03,4.045302071002137012e-01,1.681695040211639292e-02
3.430799000000000433e+03,4.028063726738952965e-01,1.900117625434327717e-02
3.432727000000000317e+03,4.010755066524325230e-01,1.362113826835054109e-02
3.434655999999999949e+03,3.993358135316604773e-01,1.715020697160152263e-02
3.436584000000000287e+03,3.975890970369437838e-01,7.374090288312706853e-03
3.438512999999999920e+03,3.958335452217127681e-01,-2.319565724974492760e-03
3.440440999999999804e+03,3.940709782537421546e-01,4.038586521294407206e-04
3.442369999999999891e+03,3.922995677440574980e-01,3.777319488002306436e-03
3.444297999999999774e+03,3.905211503028294118e-01,8.122372530348642705e-03
3.446227000000000317e+03,3.887338810986875615e-01,1.410908255462095529e-02
3.448155000000000200e+03,3.869396131842055553e-01,1.338890498914035998e-02
3.450084000000000287e+03,3.851364852856100640e-01,2.182949793899402469e-02
3.452012000000000171e+03,3.833263668978723615e-01,2.984278501265891226e-02
3.453940999999999804e+03,3.815073803048214529e-01,3.352384057122714811e-02
3.455869000000000142e+03,3.796814114438262777e-01,2.750451586279079041e-02
3.457797999999999774e+03,3.778465661563199518e-01,3.430767429102410393e-02
3.459725999999999658e+03,3.760047468220690803e-01,4.377297917979505737e-02
3.461655000000000200e+03,3.741540428401073370e-01,4.887717803594127108e-02
3.463583000000000084e+03,3.722963730326025455e-01,4.743475464680113607e-02
3.465512000000000171e+03,3.704298103561853850e-01,5.577102841361913921e-02
3.467440000000000055e+03,3.685562900754231208e-01,6.325685065151087638e-02
3.469369000000000142e+03,3.666738687045523193e-01,6.598456559181331560e-02
3.471297000000000025e+03,3.647844979505343588e-01,7.426443028804918800e-02
3.473225999999999658e+03,3.628862178852063636e-01,8.245348388552986574e-02
3.475154000000000451e+03,3.609809966579344831e-01,8.533633791802108792e-02
3.477083000000000084e+03,3.590668578981492942e-01,8.901934899840269200e-02
3.479010999999999967e+03,3.571457861976217174e-01,9.801497801486680483e-02
3.480940000000000055e+03,3.552157887433828876e-01,1.119356558046137318e-01
3.482867999999999938e+03,3.532788665695996144e-01,1.157700616689839590e-01
3.484797000000000025e+03,3.513330104209053673e-01,1.128221619928878594e-01
3.486724999999999909e+03,3.493802377738663978e-01,1.178224649288363013e-01
3.488654000000000451e+03,3.474185229307167333e-01,1.253619989704951587e-01
3.490582000000000335e+03,3.454498998104202911e-01,1.202010787543515979e-01
3.492510999999999967e+03,3.434723262728169857e-01,1.216576830468477644e-01
3.494439000000000306e+03,3.414878526792666236e-01,1.321118677307985267e-01
3.496367999999999938e+03,3.394944204472043481e-01,1.388154583971575873e-01
3.498295999999999822e+03,3.374940963804000660e-01,1.433628467696467235e-01
3.500224999999999909e+03,3.354848054538841495e-01,1.510468814053890219e-01
3.502152999999999793e+03,3.334686309138223947e-01,1.549791789650222240e-01
3.504082000000000335e+03,3.314434812928510610e-01,1.672643472253224628e-01
3.506010000000000218e+03,3.294114562795336099e-01,1.765377515489846560e-01
3.507939000000000306e+03,3.273704479641050824e-01,1.781677626603127562e-01
3.509867000000000189e+03,3.253225724775337113e-01,1.930441563202297539e-01
3.511795999999999822e+03,3.232657054676515429e-01,2.153479944391522016e-01
3.513724000000000160e+03,3.212019795078226991e-01,2.246819906692510971e-01
3.515652999999999793e+03,3.191292538034868898e-01,2.448777359448822688e-01
3.517580999999999676e+03,3.170496773704023497e-01,2.737345723966061461e-01
3.519510000000000218e+03,3.149610929716075702e-01,2.944755333098464378e-01
3.521438000000000102e+03,3.128656660652691102e-01,3.029912770847774661e-01
3.523367000000000189e+03,3.107612229720206898e-01,3.213044806626487171e-01
3.525295000000000073e+03,3.086499455924247570e-01,3.269311354886562659e-01
3.527224000000000160e+03,3.065296438047226957e-01,3.252984083853985853e-01
3.529152000000000044e+03,3.044025159518710666e-01,3.130499537592196235e-01
3.531080999999999676e+03,3.022663554697118116e-01,3.004685000754886426e-01
3.533009000000000015e+03,3.001233771436062625e-01,2.830280674043902378e-01
3.534938000000000102e+03,2.979713579669898138e-01,2.738967687804473305e-01
3.536865999999999985e+03,2.958125291676285684e-01,2.686995863962112763e-01
3.538795000000000073e+03,2.936446512965584787e-01,2.737845192533020500e-01
3.540722999999999956e+03,2.914699720239415370e-01,2.868082199611473593e-01
3.542652000000000044e+03,2.892862354584142537e-01,3.018987598817538531e-01
3.544579999999999927e+03,2.870957057125433920e-01,2.974303893480346739e-01
3.546509000000000015e+03,2.848961104525606913e-01,2.734743462109995304e-01
3.548436999999999898e+03,2.826897302334341333e-01,2.604253676230433578e-01
3.550365999999999985e+03,2.804742762789977917e-01,2.654646799185794714e-01
3.552294000000000324e+03,2.782520455866119846e-01,2.689748882437700273e-01
3.554222999999999956e+03,2.760207329377202257e-01,2.729704133810125777e-01
3.556150999999999840e+03,2.737826517720804986e-01,2.861227536333249555e-01
3.558079999999999927e+03,2.715354804287333224e-01,3.290977907735036512e-01
3.560007999999999811e+03,2.692815487898396754e-01,3.777636515829471131e-01
3.561936999999999898e+03,2.670185187520353054e-01,4.032233265415340329e-01
3.563864999999999782e+03,2.647487366398841857e-01,4.092060629873291999e-01
3.565794000000000324e+03,2.624698479076261748e-01,4.143665919805380460e-01
3.567722000000000207e+03,2.601842153222193588e-01,4.077239859825337875e-01
3.569650999999999840e+03,2.578894678955059305e-01,4.502135143971316422e-01
3.571579000000000178e+03,2.555879848368434182e-01,4.971962649301652215e-01
3.573507999999999811e+03,2.532773787156763490e-01,4.912263491501206447e-01
3.575435999999999694e+03,2.509600451837581403e-01,4.209062176307806213e-01
3.577364999999999782e+03,2.486335803681321011e-01,3.320453571901159640e-01
3.579292999999999665e+03,2.463003963629599724e-01,2.434810575047009484e-01
3.581222000000000207e+03,2.439580728528802922e-01,1.739025981629632733e-01
3.583150000000000091e+03,2.416090383744506909e-01,1.233988833403677488e-01
3.585079000000000178e+03,2.392508561699155933e-01,9.643646908637537596e-02
3.587007000000000062e+03,2.368859712182302957e-01,7.938849290106164691e-02
3.588935999999999694e+03,2.345119303192397808e-01,6.046150863695809452e-02
3.590864000000000033e+03,2.321311948943005632e-01,4.469965319516833180e-02
3.592792999999999665e+03,2.297412953008546310e-01,5.184444561247258942e-02
3.594720999999999549e+03,2.273447094026597171e-01,4.615063076509440254e-02
3.596650000000000091e+03,2.249389511147583676e-01,4.213886808375078008e-02
3.598577999999999975e+03,2.225265147433059809e-01,5.023816372826928056e-02
3.600507000000000062e+03,2.201048977609492141e-01,4.019286551957279574e-02
3.602434999999999945e+03,2.176766109162429075e-01,2.323065842206095688e-02
3.604364000000000033e+03,2.152391352394307233e-01,1.898127482580702630e-02
3.606291999999999916e+03,2.127949979214687204e-01,2.585784457620154964e-02
3.608220999999999549e+03,2.103416635502011189e-01,2.660568034541865856e-02
3.610149000000000342e+03,2.078816757589816433e-01,1.361101501036965367e-03
3.612077999999999975e+03,2.054124826932586245e-01,-7.535968247778468410e-03
3.614005999999999858e+03,2.029366444287852289e-01,-1.310682150241038180e-02
3.615934999999999945e+03,2.004515926686067928e-01,-1.078340105698960549e-03
3.617862999999999829e+03,1.979599039308777009e-01,4.896107252719827940e-03
