wavenumber (/cm),baseline value (/cm),baseline-subtracted absorbance (/cm),
3.290019000000000233e+03,5.573937239140533961e-01,-1.554312234475219157e-15
3.291947000000000116e+03,5.567656987738729413e-01,-2.847898234941137474e-04
3.293875000000000000e+03,5.561224558630932790e-01,3.966429590608999689e-03
3.295804000000000087e+03,5.554636497079101787e-01,5.357319584986530714e-04
3.297731999999999971e+03,5.547899633629072014e-01,4.679042665845400961e-03
3.299660999999999603e+03,5.541006979833404955e-01,1.407108478245655547e-03
3.301589000000000397e+03,5.533965682041177558e-01,-3.155418103638618632e-03
3.303518000000000029e+03,5.526768436001638918e-01,-6.837455750419163536e-03
3.305447000000000116e+03,5.519418854354540827e-01,-3.997071708448318716e-03
3.307375000000000000e+03,5.511920865583839202e-01,-3.692473016878361491e-03
3.309302999999999884e+03,5.504270699107181031e-01,-1.320647940213870442e-02
3.311231999999999971e+03,5.496464268580005808e-01,-1.170393188196094947e-02
3.313159999999999854e+03,5.488509667761150013e-01,-7.296630711808305136e-03
3.315089000000000397e+03,5.480398644990103207e-01,3.128785987927207302e-03
3.317017000000000280e+03,5.472139609829014262e-01,4.380566764818683012e-03
3.318945999999999913e+03,5.463723994814095875e-01,-9.217888769883497702e-04
3.320875000000000000e+03,5.455156044191653564e-01,2.248500560240174195e-04
3.322802999999999884e+03,5.446440318052090390e-01,-5.359780101865663227e-04
3.324730999999999767e+03,5.437572414206641724e-01,-6.342648747917456475e-03
3.326659999999999854e+03,5.428547614704015700e-01,-1.143723171309751763e-02
3.328587999999999738e+03,5.419375276516333884e-01,-1.052540831325021742e-02
3.330517000000000280e+03,5.410045884769907332e-01,-7.369559879062403951e-03
3.332445000000000164e+03,5.400569112239992364e-01,-3.022593709700371889e-03
3.334374000000000251e+03,5.390935128249694230e-01,-1.644138887730406395e-03
3.336302000000000135e+03,5.381153921377581639e-01,3.047655373076274543e-04
3.338230999999999767e+03,5.371215345143482978e-01,4.676270401403614940e-03
3.340159000000000106e+03,5.361129703929137236e-01,3.297293944696466639e-03
3.342087999999999738e+03,5.350886535451166992e-01,-8.366594494258805526e-03
3.344015999999999622e+03,5.340496459894659154e-01,-1.604145306938575821e-02
3.345945000000000164e+03,5.329948699172852855e-01,-1.414728914745988497e-02
3.347873000000000047e+03,5.319254189274076339e-01,-1.455874710796112304e-02
3.349802000000000135e+03,5.308401836308433985e-01,-2.337457843684109804e-02
3.351730000000000018e+03,5.297402892067459845e-01,-1.895964304814357071e-02
3.353659000000000106e+03,5.286245946857981437e-01,-1.131511872351653736e-02
3.355586999999999989e+03,5.274942568274809673e-01,-8.243213389546255598e-03
3.357515999999999622e+03,5.263481030821459683e-01,-1.270766406529655335e-02
3.359444000000000415e+03,5.251873217896054769e-01,-1.647577440979386409e-02
3.361373000000000047e+03,5.240107088198904250e-01,-1.103034091140364659e-02
3.363302000000000135e+03,5.228188622894158755e-01,-9.623623458066443703e-03
3.365230000000000018e+03,5.216124118990279612e-01,-2.067950109364846689e-02
3.367157999999999902e+03,5.203907437380443923e-01,-1.453357879755912130e-02
3.369086999999999989e+03,5.191532123195585768e-01,-7.412603260971373231e-03
3.371014999999999873e+03,5.179011007243587983e-01,-1.455050557827752833e-02
3.372944000000000415e+03,5.166331100814858246e-01,-2.369525260737859185e-02
3.374872000000000298e+03,5.153505550520627310e-01,-2.067518018732328322e-02
3.376800999999999931e+03,5.140521051848097045e-01,-2.288500053184949756e-02
3.378729000000000269e+03,5.127391067211632958e-01,-2.398195723901763721e-02
3.380657999999999902e+03,5.114101976295266638e-01,-2.695742285753710554e-02
3.382585999999999785e+03,5.100667557316569400e-01,-2.653916259515987086e-02
3.384514999999999873e+03,5.087073874156367026e-01,-2.025631306102249063e-02
3.386442999999999756e+03,5.073335020835472164e-01,-7.467989639583949568e-03
3.388372000000000298e+03,5.059436745431398208e-01,-1.577208697164489415e-02
3.390300000000000182e+03,5.045393457768305723e-01,-2.714871353073378124e-02
3.392229000000000269e+03,5.031190590120395711e-01,-2.820871738273056373e-02
3.394157000000000153e+03,5.016842868115105603e-01,-1.054191550218908091e-02
3.396085999999999785e+03,5.002335408223359536e-01,4.543859084914059210e-03
3.398014000000000124e+03,4.987683251875836277e-01,-4.835723548999526500e-03
3.399942999999999756e+03,4.972871199740254156e-01,-1.193235107620504998e-02
3.401870999999999640e+03,4.957914609050497745e-01,-2.243931992499104133e-02
3.403800000000000182e+03,4.942797964671044042e-01,-2.465543412362003473e-02
3.405728000000000065e+03,4.927536939639125535e-01,-1.531436794752671915e-02
3.407657000000000153e+03,4.912115703015835777e-01,-8.303083673047551017e-03
3.409585000000000036e+03,4.896550243641684119e-01,-1.266244436726005063e-02
3.411514000000000124e+03,4.880824414774558306e-01,-1.563538629118288448e-02
3.413442000000000007e+03,4.864954521058173498e-01,-7.824869326407801751e-03
3.415370999999999640e+03,4.848924099947247157e-01,-1.629680016322043734e-02
3.417299000000000433e+03,4.832749771888664725e-01,-1.336154389160282285e-02
3.419228000000000065e+03,4.816414758533866802e-01,-1.759757416842755440e-02
3.421155999999999949e+03,4.799935996133051219e-01,-2.952675775212099119e-02
3.423085000000000036e+03,4.783296390534417242e-01,-2.982909801154964846e-02
3.425012999999999920e+03,4.766513193791404035e-01,-2.217458418050077817e-02
3.426942000000000007e+03,4.749568995948898475e-01,-1.414379092276130123e-02
3.428869999999999891e+03,4.732481364863723172e-01,-6.710031678828665136e-03
3.430799000000000433e+03,4.715232574777381558e-01,-8.807227179392196348e-03
3.432727000000000317e+03,4.697840509349937577e-01,-1.626186821741759658e-02
3.434655999999999949e+03,4.680287127019759907e-01,-1.270640631768138462e-02
3.436584000000000287e+03,4.662590627250118303e-01,-5.261226892580239678e-03
3.438512999999999920e+03,4.644732652676104578e-01,-4.166417223090412847e-03
3.440440999999999804e+03,4.626731718564265350e-01,4.130856795141468751e-04
3.442369999999999891e+03,4.608569151746380044e-01,3.432001195743383803e-03
3.444297999999999774e+03,4.590263783292343192e-01,1.521619815764818640e-03
3.446227000000000317e+03,4.571796624230621831e-01,-1.059440967920677323e-02
3.448155000000000200e+03,4.553186821434316300e-01,-9.158533743369945412e-03
3.450084000000000287e+03,4.534415070128794412e-01,5.266175781988291504e-03
3.452012000000000171e+03,4.515500832990291258e-01,1.296066024711395315e-02
3.453940999999999804e+03,4.496424489440933314e-01,7.201730990981536351e-03
3.455869000000000142e+03,4.477205817960197010e-01,8.884766789542419829e-03
3.457797999999999774e+03,4.457824882166967484e-01,2.308750714580121155e-02
3.459725999999999658e+03,4.438301776344069083e-01,2.992310726279501232e-02
3.461655000000000200e+03,4.418616248307003502e-01,2.818784185657752239e-02
3.463583000000000084e+03,4.398788708141871950e-01,3.218636337966040983e-02
3.465512000000000171e+03,4.378798587860970315e-01,3.442497967425217631e-02
3.467440000000000055e+03,4.358666613353605612e-01,4.598911235454528068e-02
3.469369000000000142e+03,4.338371900828867922e-01,5.331692956466316247e-02
3.471297000000000025e+03,4.317935491979305596e-01,4.765922557405910531e-02
3.473225999999999658e+03,4.297336187210731850e-01,4.891454946566353712e-02
3.475154000000000451e+03,4.276595344018936373e-01,5.593839418057666713e-02
3.477083000000000084e+03,4.255691447006491046e-01,7.072317250448301174e-02
3.479010999999999967e+03,4.234646169472533472e-01,7.013563038618308987e-02
3.480940000000000055e+03,4.213437680216252090e-01,4.737860019602835315e-02
3.482867999999999938e+03,4.192087968340061366e-01,4.679444941734645091e-02
3.484797000000000025e+03,4.170574886839943929e-01,6.928506812540446980e-02
3.486724999999999909e+03,4.148920740621520054e-01,7.389676501653119622e-02
3.488654000000000451e+03,4.127103066877566562e-01,7.498330901791661063e-02
3.490582000000000335e+03,4.105144486316945063e-01,8.515953498246542352e-02
3.492510999999999967e+03,4.083022220329119989e-01,7.946404786970018286e-02
3.494439000000000306e+03,4.060759205426300866e-01,7.436000463900538371e-02
3.496367999999999938e+03,4.038332347194639738e-01,7.935813952694181772e-02
3.498295999999999822e+03,4.015764897949622991e-01,8.997398168440073896e-02
3.500224999999999909e+03,3.993033447474125808e-01,8.219070379177417784e-02
3.502152999999999793e+03,3.970161563886840383e-01,6.063185721465513822e-02
3.504082000000000335e+03,3.947125521167542672e-01,5.617475658629089708e-02
3.506010000000000218e+03,3.923949203238059624e-01,7.354108214952836953e-02
3.507939000000000306e+03,3.900608568274890331e-01,7.372489058323927757e-02
3.509867000000000189e+03,3.877127816003209659e-01,9.132957425066079438e-02
3.511795999999999822e+03,3.853482588796168784e-01,1.190712804618576648e-01
3.513724000000000160e+03,3.829697402182290489e-01,1.332561061258734636e-01
3.515652999999999793e+03,3.805747582731449086e-01,1.564441009013797235e-01
3.517580999999999676e+03,3.781657961775337640e-01,1.685825420509403649e-01
3.519510000000000218e+03,3.757403550080624655e-01,1.691398428586867730e-01
3.521438000000000102e+03,3.733009494782315585e-01,1.562082482339341993e-01
3.523367000000000189e+03,3.708450490843766545e-01,1.451628346689082250e-01
3.525295000000000073e+03,3.683752001203224324e-01,1.554144118753493231e-01
3.527224000000000160e+03,3.658888405020839230e-01,1.422971233254013423e-01
3.529152000000000044e+03,3.633885481038099385e-01,1.534154401478520224e-01
3.531080999999999676e+03,3.608717292611878236e-01,1.731891765975226427e-01
3.533009000000000015e+03,3.583409934286940768e-01,1.709587437795296871e-01
3.534938000000000102e+03,3.557937153616848036e-01,1.569091753478526474e-01
3.536865999999999985e+03,3.532325360949677417e-01,1.495020442111074654e-01
3.538795000000000073e+03,3.506547988035784158e-01,1.669924418827715140e-01
3.540722999999999956e+03,3.480631761026380389e-01,1.727823950830167377e-01
3.542652000000000044e+03,3.454549795868651074e-01,1.470879173060082312e-01
3.544579999999999927e+03,3.428329134517049681e-01,1.090244060721781150e-01
3.546509000000000015e+03,3.401942577115413258e-01,9.719482870057816193e-02
3.548436999999999898e+03,3.375417481421649768e-01,1.233648834855982646e-01
3.550365999999999985e+03,3.348726331776177290e-01,1.316252799465127410e-01
3.552294000000000324e+03,3.321896801740180649e-01,1.081820928975536500e-01
3.554222999999999956e+03,3.294901059850907643e-01,1.390197100606660463e-01
3.556150999999999840e+03,3.267767095472642325e-01,1.641933012735734554e-01
3.558079999999999927e+03,3.240466761339568791e-01,1.792227627283093927e-01
3.560007999999999811e+03,3.213028362619105849e-01,1.955768978546454928e-01
3.561936999999999898e+03,3.185423436242160733e-01,1.992239262783963571e-01
3.563864999999999782e+03,3.157680603179500167e-01,1.803642630705182270e-01
3.565794000000000324e+03,3.129771084558647942e-01,1.257908618641228049e-01
3.567722000000000207e+03,3.101723817153825280e-01,1.495284994099848053e-01
3.569650999999999840e+03,3.073509706289137000e-01,2.577672856703596693e-01
3.571579000000000178e+03,3.045158004542045660e-01,3.099779389181869238e-01
3.573507999999999811e+03,3.016639301433592379e-01,3.065792295412905766e-01
3.575435999999999694e+03,2.987983165344267888e-01,2.765811857070326063e-01
3.577364999999999782e+03,2.959159869991978553e-01,2.381889751278696288e-01
3.579292999999999665e+03,2.930199299560456438e-01,1.805772257094360178e-01
3.581222000000000207e+03,2.901071411964259994e-01,1.377387391560240815e-01
3.583150000000000091e+03,2.871806407190540256e-01,1.138434742909939512e-01
3.585079000000000178e+03,2.842373927350507756e-01,6.618384702379920270e-02
3.587007000000000062e+03,2.812804488234625921e-01,-2.333486217946800778e-02
3.588935999999999694e+03,2.783067416150757367e-01,2.448812621611939910e-02
3.590864000000000033e+03,2.753193542692571327e-01,9.540332311519184039e-02
3.592792999999999665e+03,2.723151878364902245e-01,6.691421392576057947e-02
3.594720999999999549e+03,2.692973570564554109e-01,3.224461233603181931e-02
3.596650000000000091e+03,2.662627313993013445e-01,4.848297891141117866e-02
3.598577999999999975e+03,2.632144571850432158e-01,6.311805170350215377e-02
3.600507000000000062e+03,2.601493723035019912e-01,6.803581860699425832e-02
3.602434999999999945e+03,2.570706546550276528e-01,9.079995904106130666e-02
3.604364000000000033e+03,2.539751105491028227e-01,1.017939418546689456e-01
3.606291999999999916e+03,2.508659494664051692e-01,6.207731842662322919e-02
3.608220999999999549e+03,2.477399461360967337e-01,2.440721725855454771e-02
3.610149000000000342e+03,2.446003416191757651e-01,4.397671820459914116e-02
3.612077999999999975e+03,2.414438790644837241e-01,2.221279120912877936e-02
3.614005999999999858e+03,2.382738311133429931e-01,-1.100145516651962474e-02
3.615934999999999945e+03,2.350869093342637939e-01,5.735474341729718262e-03
3.617862999999999829e+03,2.318864179489033006e-01,-1.912710429918940136e-02
