wavenumber (/cm),baseline value (/cm),baseline-subtracted absorbance (/cm),
3.290019000000000233e+03,2.307640726933843922e-01,-5.151770736254945859e-03
3.291947000000000116e+03,2.293062802753542684e-01,-1.131559993984643242e-02
3.293875000000000000e+03,2.278558883884489461e-01,-6.089811967200375875e-03
3.295804000000000087e+03,2.264121505133900314e-01,-1.962942684871293864e-03
3.297731999999999971e+03,2.249765635271891995e-01,2.261087917358572952e-03
3.299660999999999603e+03,2.235476382317287403e-01,3.797189354478369694e-03
3.301589000000000397e+03,2.221268561462323987e-01,-8.289018308394791035e-03
3.303518000000000029e+03,2.207127434303615132e-01,-2.873041659625208410e-03
3.305447000000000116e+03,2.193060389245111708e-01,1.189526582851785363e-02
3.307375000000000000e+03,2.179074661092954557e-01,1.303288803795510375e-02
3.309302999999999884e+03,2.165162938252063185e-01,7.060593406853055143e-03
3.311231999999999971e+03,2.151318062685270149e-01,1.057382920662153225e-03
3.313159999999999854e+03,2.137554388851405918e-01,-1.016389490918978566e-03
3.315089000000000397e+03,2.123857639080544146e-01,4.652446716363112245e-03
3.317017000000000280e+03,2.110242014253724818e-01,4.157532032222910345e-03
3.318945999999999913e+03,2.096693390278794311e-01,-3.052377238504266899e-03
3.320875000000000000e+03,2.083218848404033707e-01,6.459103044032410423e-03
3.322802999999999884e+03,2.069825316280020644e-01,6.375343488494333855e-03
3.324730999999999767e+03,2.056505789467273360e-01,1.359639216231256498e-02
3.326659999999999854e+03,2.043253417084240908e-01,3.115368904646897974e-02
3.328587999999999738e+03,2.030081939278538528e-01,2.278770541976982145e-02
3.330517000000000280e+03,2.016977692691437340e-01,1.405805552116357049e-02
3.332445000000000164e+03,2.003954263892779863e-01,1.537810576356468673e-02
3.334374000000000251e+03,1.990998143101627704e-01,1.207166751649157987e-02
3.336302000000000135e+03,1.978122763309997367e-01,6.250165421097353402e-03
3.338230999999999767e+03,1.965314768314812000e-01,1.053003295416665708e-02
3.340159000000000106e+03,1.952587437530208803e-01,1.599847898696005188e-02
3.342087999999999738e+03,1.939927568330936936e-01,2.036418631695280368e-02
3.344015999999999622e+03,1.927348286553396406e-01,2.077588895882653830e-02
3.345945000000000164e+03,1.914836543150073567e-01,1.131317699906553287e-02
3.347873000000000047e+03,1.902405310379542414e-01,7.724054236975863574e-03
3.349802000000000135e+03,1.890041692772150839e-01,9.688036957578027852e-04
3.351730000000000018e+03,1.877758509008682353e-01,1.092312393603789289e-02
3.353659000000000106e+03,1.865543017197222042e-01,2.635716146760325174e-02
3.355586999999999989e+03,1.853407882440780696e-01,1.960329376896874365e-02
3.357515999999999622e+03,1.841340516425304941e-01,9.510869140321620563e-03
3.359444000000000415e+03,1.829353430675908498e-01,5.194200268848980784e-03
3.361373000000000047e+03,1.817434190456328480e-01,7.553878251664869481e-03
3.363302000000000135e+03,1.805589032336953892e-01,1.902823562930544554e-02
3.365230000000000018e+03,1.793824039290363714e-01,1.496335562361972293e-02
3.367157999999999902e+03,1.782133051555039316e-01,1.018744041765540231e-02
3.369086999999999989e+03,1.770510062927375117e-01,1.631432455535231085e-02
3.371014999999999873e+03,1.758967124199095622e-01,1.843599960245745351e-02
3.372944000000000415e+03,1.747492261367344923e-01,2.005319697603313855e-02
3.374872000000000298e+03,1.736097371646092569e-01,-1.372085720061200220e-03
3.376800999999999931e+03,1.724770634610308662e-01,-1.213130390837502404e-02
3.378729000000000269e+03,1.713523793896101211e-01,1.698778836435055339e-02
3.380657999999999902e+03,1.702345182656213041e-01,2.090527670176012265e-02
3.382585999999999785e+03,1.691246390949050493e-01,1.229660974013668806e-02
3.384514999999999873e+03,1.680215905505146878e-01,2.598633171464470593e-04
3.386442999999999756e+03,1.669265162805011471e-01,5.063232088557079180e-03
3.388372000000000298e+03,1.658382803157039120e-01,2.308038416821922567e-03
3.390300000000000182e+03,1.647580109463948617e-01,-4.675065932415733982e-03
3.392229000000000269e+03,1.636845875611925294e-01,1.591373489919956086e-02
3.394157000000000153e+03,1.626191230925861930e-01,2.380864950759997711e-02
3.396085999999999785e+03,1.615605122869805399e-01,1.812355108673813220e-02
3.398014000000000124e+03,1.605098527190769175e-01,1.531400562202289706e-02
3.399942999999999756e+03,1.594660544930626145e-01,4.709155199387637936e-03
3.401870999999999640e+03,1.584301998258652588e-01,-1.206207307842799281e-02
3.403800000000000182e+03,1.574012141794476349e-01,-6.259555279168438346e-03
3.405728000000000065e+03,1.563801644129529933e-01,7.245185074465254615e-03
3.407657000000000153e+03,1.553659913461249431e-01,2.075516429227253212e-02
3.409585000000000036e+03,1.543597464803347918e-01,3.217333832861246634e-02
3.411514000000000124e+03,1.533603859931034208e-01,2.844296908611365637e-02
3.413442000000000007e+03,1.523689460280142072e-01,4.253319749481887513e-02
3.415370999999999640e+03,1.513843981203795153e-01,4.497627289546324292e-02
3.417299000000000433e+03,1.504077630559947920e-01,2.393240469796609204e-02
3.419228000000000065e+03,1.494380277279514502e-01,2.159179519842346906e-02
3.421155999999999949e+03,1.484761975642729936e-01,2.431876981690184181e-02
3.423085000000000036e+03,1.475212748158245546e-01,2.372942415901224678e-02
3.425012999999999920e+03,1.465742495528488121e-01,9.977474585082468650e-03
3.426942000000000007e+03,1.456341393839934995e-01,-1.280924099743785405e-03
3.428869999999999891e+03,1.447019190217222473e-01,9.290625246683781313e-03
3.430799000000000433e+03,1.437766214324618375e-01,9.793742034453600809e-03
3.432727000000000317e+03,1.428592059708932993e-01,2.302024224819732012e-03
3.434655999999999949e+03,1.419487209612277923e-01,9.552676988445973905e-03
3.436584000000000287e+03,1.410461104003637445e-01,-2.396529785265499868e-03
3.438512999999999920e+03,1.401504379702895875e-01,-1.695658894885454515e-02
3.440440999999999804e+03,1.392626323101300301e-01,2.024189480245297545e-04
3.442369999999999891e+03,1.383817724596525522e-01,2.983537572301298013e-02
3.444297999999999774e+03,1.375087717001957088e-01,2.362729540138897022e-02
3.446227000000000317e+03,1.366427244293113574e-01,3.238915831639488374e-03
3.448155000000000200e+03,1.357845285705590044e-01,1.150233777996945150e-03
3.450084000000000287e+03,1.349332938792713321e-01,1.683651040777434105e-02
3.452012000000000171e+03,1.340899029212199167e-01,2.701261338819271884e-02
3.453940999999999804e+03,1.332534808095253709e-01,2.626748843558157631e-02
3.455869000000000142e+03,1.324248947521802222e-01,1.269346498686907410e-02
3.457797999999999774e+03,1.316032852200788028e-01,5.152539570229208721e-03
3.459725999999999658e+03,1.307895040634381445e-01,1.686007655166044117e-02
3.461655000000000200e+03,1.299827071109316279e-01,4.527731152839731266e-02
3.463583000000000084e+03,1.291837308549936836e-01,6.426827287287206758e-02
3.465512000000000171e+03,1.283917464820802934e-01,4.621962350860009394e-02
3.467440000000000055e+03,1.276075751268468395e-01,3.324331024128035494e-02
3.469369000000000142e+03,1.268304033335283521e-01,2.975114373077758501e-02
3.471297000000000025e+03,1.260610368789976121e-01,3.022973665315475955e-02
3.473225999999999658e+03,1.252986776652740275e-01,2.911977527042086678e-02
3.475154000000000451e+03,1.245441161114477779e-01,2.761338621846842756e-02
3.477083000000000084e+03,1.237965694773173198e-01,4.589122176219717630e-02
3.479010999999999967e+03,1.230568128241937842e-01,6.268037263712944451e-02
3.480940000000000055e+03,1.223240787696582288e-01,5.545318124898113155e-02
3.482867999999999938e+03,1.215991270172409600e-01,2.401969870503339877e-02
3.484797000000000025e+03,1.208812055422985310e-01,1.528654841855914270e-02
3.486724999999999909e+03,1.201710586905839762e-01,3.493891335042320634e-02
3.488654000000000451e+03,1.194679497952364500e-01,4.690763268379427586e-02
3.490582000000000335e+03,1.187726078442246092e-01,5.962813772893404973e-02
3.492510999999999967e+03,1.180843115284719858e-01,5.274420664487333710e-02
3.494439000000000306e+03,1.174037744781646353e-01,4.716006522360594033e-02
3.496367999999999938e+03,1.167302907420033620e-01,5.030791988241389845e-02
3.498295999999999822e+03,1.160645585924005019e-01,6.130263618858755592e-02
3.500224999999999909e+03,1.154058874358359077e-01,6.352607901337226082e-02
3.502152999999999793e+03,1.147549601869375380e-01,5.585081800504720917e-02
3.504082000000000335e+03,1.141111016099660702e-01,5.756643799860761135e-02
3.506010000000000218e+03,1.134749792617686381e-01,5.893415400943347038e-02
3.507939000000000306e+03,1.128459332643938495e-01,5.378314408882189923e-02
3.509867000000000189e+03,1.122246158169009078e-01,6.271014653165440933e-02
3.511795999999999822e+03,1.116103823991192456e-01,7.469437062977135611e-02
3.513724000000000160e+03,1.110038698523307943e-01,7.742483471430450237e-02
3.515652999999999793e+03,1.104044490141422585e-01,8.108203747234421499e-02
3.517580999999999676e+03,1.098127413680565212e-01,7.895333505319213074e-02
3.519510000000000218e+03,1.092281331094628882e-01,8.011017071159898251e-02
3.521438000000000102e+03,1.086512303640834176e-01,8.189676590805072820e-02
3.523367000000000189e+03,1.080814346850829111e-01,7.992508908006179524e-02
3.525295000000000073e+03,1.075193368404061545e-01,8.303052336462624083e-02
3.527224000000000160e+03,1.069643537410005507e-01,8.003471429255037961e-02
3.529152000000000044e+03,1.064170607970282845e-01,7.903401096438855689e-02
3.531080999999999676e+03,1.058768902772158071e-01,8.035889723443334631e-02
3.533009000000000015e+03,1.053444022339462549e-01,7.976277390771224773e-02
3.534938000000000102e+03,1.048190442937304567e-01,8.091720920114342519e-02
3.536865999999999985e+03,1.043013611511618421e-01,9.334076373234179158e-02
3.538795000000000073e+03,1.037908157905409468e-01,9.473201738746439560e-02
3.540722999999999956e+03,1.032879375486785989e-01,7.758717894712763297e-02
3.542652000000000044e+03,1.027922047676490536e-01,8.231310744111164368e-02
3.544579999999999927e+03,1.023041314264911961e-01,8.129885086614585532e-02
3.546509000000000015e+03,1.018232112250565535e-01,6.426159772182149510e-02
3.548436999999999898e+03,1.013499427846031864e-01,9.670317930300154075e-02
3.550365999999999985e+03,1.008838351627616703e-01,8.480302411030438137e-02
3.552294000000000324e+03,1.004253716230110172e-01,6.580575605639271686e-02
3.554222999999999956e+03,9.997407658076618020e-02,8.027662239407096223e-02
3.556150999999999840e+03,9.953041794171824108e-02,8.142950750096566992e-02
3.558079999999999927e+03,9.909393547906653055e-02,7.819311018728924978e-02
3.560007999999999811e+03,9.866508174072485815e-02,7.383911210829641192e-02
3.561936999999999898e+03,9.824341185766627405e-02,7.010700752723586504e-02
3.563864999999999782e+03,9.782936302002731566e-02,7.086495198463182987e-02
3.565794000000000324e+03,9.742250571656363434e-02,6.291766203739701524e-02
3.567722000000000207e+03,9.702326177962738996e-02,9.038680345802418969e-02
3.569650999999999840e+03,9.663121705575861142e-02,1.076586245099449002e-01
3.571579000000000178e+03,9.624677801952685741e-02,1.172238650373227387e-01
3.573507999999999811e+03,9.586954587525298166e-02,1.248564559886795600e-01
3.575435999999999694e+03,9.549991173972394165e-02,1.237060528455513619e-01
3.577364999999999782e+03,9.513749217504319233e-02,1.214524425873055868e-01
3.579292999999999665e+03,9.478266294021864269e-02,8.701510034030324192e-02
3.581222000000000207e+03,9.443505595513279616e-02,6.729094590880002613e-02
3.583150000000000091e+03,9.409503162101096052e-02,7.050329083938056129e-02
3.585079000000000178e+03,9.376223721552001678e-02,5.992928188979185222e-02
3.587007000000000062e+03,9.343701778210267150e-02,2.801964577800930556e-02
3.588935999999999694e+03,9.311903595620485419e-02,2.018105724044083615e-02
3.590864000000000033e+03,9.280862142349199928e-02,4.815409991854036065e-02
3.592792999999999665e+03,9.250545217718908475e-02,5.216556366624036656e-02
3.594720999999999549e+03,9.220984254517894385e-02,3.337450041847400684e-02
3.596650000000000091e+03,9.192148587846915575e-02,2.897692977856713981e-02
3.598577999999999975e+03,9.164068114716350522e-02,4.777404392273432165e-02
3.600507000000000062e+03,9.136713706004861990e-02,5.015010431926203438e-02
3.602434999999999945e+03,9.110113722944568337e-02,5.726046575284637896e-02
3.604364000000000033e+03,9.084240572192570085e-02,3.862916930137405558e-02
3.606291999999999916e+03,9.059121079202725468e-02,1.196796907749764216e-02
3.608220999999999549e+03,9.034729186410039858e-02,8.402009161063261899e-03
3.610149000000000342e+03,9.011090183490644279e-02,1.415936843536425016e-02
3.612077999999999975e+03,8.988179548657271312e-02,-1.966604433450314104e-03
3.614005999999999858e+03,8.966021035808324768e-02,-9.997582212696087822e-03
3.615934999999999945e+03,8.944591658934442080e-02,-1.519055778226174880e-02
3.617862999999999829e+03,8.923913636155766937e-02,-2.668554829072888879e-02
