wavenumber (/cm),baseline value (/cm),baseline-subtracted absorbance (/cm),
3.290019000000000233e+03,2.318781882825682317e-01,1.043609643147647148e-14
3.291947000000000116e+03,2.320407749227122451e-01,-2.531577210546531731e-03
3.293875000000000000e+03,2.321938883833816192e-01,-1.631204815596865032e-03
3.295804000000000087e+03,2.323376007087922801e-01,-9.571709669466965664e-04
3.297731999999999971e+03,2.324717628970489613e-01,-4.383186610142253414e-03
3.299660999999999603e+03,2.325965141205461606e-01,-7.575645361850957826e-03
3.301589000000000397e+03,2.327117250363865963e-01,-6.765674642198904465e-03
3.303518000000000029e+03,2.328175151579703339e-01,-7.550858796863568756e-03
3.305447000000000116e+03,2.329138222705857686e-01,-7.376644963428491408e-03
3.307375000000000000e+03,2.330006038210630237e-01,-5.481667354839236950e-03
3.309302999999999884e+03,2.330779121920745212e-01,-6.971095064234100747e-03
3.311231999999999971e+03,2.331457801098295590e-01,-1.305689465612736022e-02
3.313159999999999854e+03,2.332041372084230346e-01,-6.368459360224010268e-03
3.315089000000000397e+03,2.332530440242663872e-01,-8.825076198764048030e-04
3.317017000000000280e+03,2.332924498504436173e-01,-5.312081941956980913e-03
3.318945999999999913e+03,2.333223955643735081e-01,-8.130712151171781699e-03
3.320875000000000000e+03,2.333428582693333198e-01,-5.502388335804297981e-03
3.322802999999999884e+03,2.333538347301509219e-01,-3.362336817026578828e-03
3.324730999999999767e+03,2.333553380114992137e-01,6.800615865838466334e-04
3.326659999999999854e+03,2.333473615216004049e-01,-7.859146209974188224e-04
3.328587999999999738e+03,2.333299135305342276e-01,7.186256563571635780e-04
3.330517000000000280e+03,2.333029759387219570e-01,2.906639148617662372e-03
3.332445000000000164e+03,2.332665766752395342e-01,5.216960192900854665e-03
3.334374000000000251e+03,2.332206779815138020e-01,5.692600732352337545e-03
3.336302000000000135e+03,2.331653274456133573e-01,1.292857745297082417e-03
3.338230999999999767e+03,2.331004676499759398e-01,-2.261852717219348108e-03
3.340159000000000106e+03,2.330261658416610260e-01,-1.229133842897578432e-03
3.342087999999999738e+03,2.329423449441065941e-01,-4.535522404429670473e-04
3.344015999999999622e+03,2.328490918633789875e-01,2.708954202473634609e-03
3.345945000000000164e+03,2.327463098639110939e-01,3.827349125113510553e-03
3.347873000000000047e+03,2.326341055107672418e-01,4.269589032438902976e-03
3.349802000000000135e+03,2.325123624093876629e-01,7.902694013552702401e-03
3.351730000000000018e+03,2.323812067838257889e-01,1.290013500006659264e-02
3.353659000000000106e+03,2.322405025805309720e-01,1.643858228575467706e-02
3.355586999999999989e+03,2.320903956825564052e-01,2.025695321217213518e-02
3.357515999999999622e+03,2.319307303773499029e-01,1.940950768108251623e-02
3.359444000000000415e+03,2.317616722069573143e-01,1.649308123252346547e-02
3.361373000000000047e+03,2.315830457998373504e-01,1.306836863825200368e-02
3.363302000000000135e+03,2.313949363837490836e-01,1.222849845934881330e-02
3.365230000000000018e+03,2.311974488479950907e-01,1.159355439825637824e-02
3.367157999999999902e+03,2.309904881327735637e-01,1.035825201253470773e-02
3.369086999999999989e+03,2.307739395218266765e-01,1.636015648988076165e-03
3.371014999999999873e+03,2.305480275341871277e-01,-2.294819928683855537e-03
3.372944000000000415e+03,2.303125178213267787e-01,-1.253930713582152023e-03
3.374872000000000298e+03,2.300676545612709845e-01,-3.116039164764661251e-03
3.376800999999999931e+03,2.298131837464971738e-01,-8.107355952402084398e-03
3.378729000000000269e+03,2.295493692140286868e-01,-7.350420381133426773e-03
3.380657999999999902e+03,2.292759372973414145e-01,-2.200655182640787189e-03
3.382585999999999785e+03,2.289931714924549055e-01,-7.407368039402673077e-04
3.384514999999999873e+03,2.287007784738523952e-01,-6.242129532748386112e-03
3.386442999999999756e+03,2.283990613965549699e-01,-1.128049593048596755e-02
3.388372000000000298e+03,2.280877072760372215e-01,-1.417674731313711689e-02
3.390300000000000182e+03,2.277670389263235506e-01,-1.420621035931168841e-02
3.392229000000000269e+03,2.274367237038941170e-01,-9.688230892021865159e-03
3.394157000000000153e+03,2.270971040817606479e-01,-8.045473226914179321e-03
3.396085999999999785e+03,2.267478277574195289e-01,-1.012238333015114122e-02
3.398014000000000124e+03,2.263892568628733670e-01,-8.518643166784301002e-03
3.399942999999999756e+03,2.260210194366152336e-01,-6.044979863265576014e-03
3.401870999999999640e+03,2.256434972696546026e-01,-1.009859079261010706e-02
3.403800000000000182e+03,2.252562987414830076e-01,-1.184387023630439906e-02
3.405728000000000065e+03,2.248598253021079074e-01,-1.134305300345261891e-02
3.407657000000000153e+03,2.244536656720228507e-01,-1.345660275657989402e-02
3.409585000000000036e+03,2.240382409602315050e-01,-1.792833216443634470e-02
3.411514000000000124e+03,2.236131202282312103e-01,-1.856442645794209589e-02
3.413442000000000007e+03,2.231787442440253955e-01,-9.880707453176817978e-03
3.415370999999999640e+03,2.227346624101134154e-01,-1.974885010205928992e-03
3.417299000000000433e+03,2.222813351534895787e-01,-4.358163102167633696e-03
3.419228000000000065e+03,2.218182922176659133e-01,-1.021294363210412115e-02
3.421155999999999949e+03,2.213460136886258312e-01,-6.867732656008707082e-03
3.423085000000000036e+03,2.208640096508869277e-01,-2.187243535567651165e-03
3.425012999999999920e+03,2.203727798494341528e-01,1.025640986258569143e-04
3.426942000000000007e+03,2.198718147097817877e-01,3.817020625169753600e-04
3.428869999999999891e+03,2.193616336359109908e-01,5.564939250161105022e-03
3.430799000000000433e+03,2.188417073943469404e-01,7.100007521980700176e-04
3.432727000000000317e+03,2.183125750480598981e-01,2.209143919323031113e-03
3.434655999999999949e+03,2.177736877045823860e-01,2.867060479062599754e-03
3.436584000000000287e+03,2.172256040858808745e-01,-8.760910235836583126e-04
3.438512999999999920e+03,2.166677556404899008e-01,-2.299228820270338147e-03
3.440440999999999804e+03,2.161007207493721438e-01,1.305360136514277514e-04
3.442369999999999891e+03,2.155239112020641556e-01,1.420747941544009407e-03
3.444297999999999774e+03,2.149379250385354823e-01,5.596160600666921781e-03
3.446227000000000317e+03,2.143421543893140324e-01,1.133492089280063730e-02
3.448155000000000200e+03,2.137372169533673372e-01,1.212458548905037681e-02
3.450084000000000287e+03,2.131224852022342020e-01,6.817227272646109171e-03
3.452012000000000171e+03,2.124985964938694849e-01,5.599254796901931286e-03
3.453940999999999804e+03,2.118649036408228881e-01,6.976493793092730655e-03
3.455869000000000142e+03,2.112220636600454782e-01,1.649473955528923952e-02
3.457797999999999774e+03,2.105694097050836433e-01,1.909669015579140705e-02
3.459725999999999658e+03,2.099076184518917643e-01,1.599282983996141994e-02
3.461655000000000200e+03,2.092360033950146914e-01,1.972828784010682845e-02
3.463583000000000084e+03,2.085552608694083432e-01,2.660859753219924073e-02
3.465512000000000171e+03,2.078646847106195850e-01,3.361390548879295004e-02
3.467440000000000055e+03,2.071649909125969913e-01,4.144994184362515988e-02
3.469369000000000142e+03,2.064554536518947714e-01,4.651100175079525556e-02
3.471297000000000025e+03,2.057368085814523795e-01,5.096283587673289261e-02
3.473225999999999658e+03,2.050083102188384743e-01,5.319388486540965744e-02
3.475154000000000451e+03,2.042707138759833896e-01,6.217386797592561187e-02
3.477083000000000084e+03,2.035232544114542463e-01,6.997033037753919160e-02
3.479010999999999967e+03,2.027667067961829162e-01,7.633439074594106089e-02
3.480940000000000055e+03,2.020002862297403112e-01,8.016001675371930979e-02
3.482867999999999938e+03,2.012247873420545119e-01,8.412843572178840823e-02
3.484797000000000025e+03,2.004394056736984453e-01,8.653230556451485533e-02
3.486724999999999909e+03,1.996449555135946241e-01,8.666668461625559594e-02
3.488654000000000451e+03,1.988406127433268722e-01,8.856470492555557072e-02
3.490582000000000335e+03,1.980272113108085819e-01,9.262358479368981712e-02
3.492510999999999967e+03,1.972039074386255919e-01,9.326370733954725267e-02
3.494439000000000306e+03,1.963715547336946088e-01,9.347540770253992548e-02
3.496367999999999938e+03,1.955292897595981572e-01,9.682037788609676454e-02
3.498295999999999822e+03,1.946779857822491522e-01,1.040034178350024430e-01
3.500224999999999909e+03,1.938167597062374625e-01,1.051892690462745694e-01
3.502152999999999793e+03,1.929465044564757648e-01,1.076409124549477792e-01
3.504082000000000335e+03,1.920663172785506134e-01,1.221468532269371909e-01
3.506010000000000218e+03,1.911771107563726702e-01,1.320382239166835170e-01
3.507939000000000306e+03,1.902779624765340571e-01,1.357075066840780497e-01
3.509867000000000189e+03,1.893698046819380920e-01,1.447993095551929343e-01
3.511795999999999822e+03,1.884516953001877937e-01,1.620754340861161324e-01
3.513724000000000160e+03,1.875245862331791358e-01,1.857943193163646978e-01
3.515652999999999793e+03,1.865875157495153758e-01,2.089620282294613052e-01
3.517580999999999676e+03,1.856414554100886960e-01,2.238546027132686245e-01
3.519510000000000218e+03,1.846854238245079216e-01,2.400579677352385755e-01
3.521438000000000102e+03,1.837204122126685490e-01,2.528748884520399809e-01
3.523367000000000189e+03,1.827454195251760893e-01,2.650479024720413523e-01
3.525295000000000073e+03,1.817614566409222476e-01,2.691080749713825604e-01
3.527224000000000160e+03,1.807675028515163262e-01,2.526085985551922430e-01
3.529152000000000044e+03,1.797645886948426863e-01,2.420177578811346653e-01
3.531080999999999676e+03,1.787516738035233033e-01,2.391019357188139960e-01
3.533009000000000015e+03,1.777298083744369706e-01,2.379750919192715752e-01
3.534938000000000102e+03,1.766979323812041258e-01,2.367036752861322313e-01
3.536865999999999985e+03,1.756571156796997712e-01,2.386356652756256302e-01
3.538795000000000073e+03,1.746062785845534648e-01,2.425532514819173091e-01
3.540722999999999956e+03,1.735465106106364175e-01,2.554510160549996467e-01
3.542652000000000044e+03,1.724767124135766494e-01,2.685188046678885776e-01
3.544579999999999927e+03,1.713979931672415802e-01,2.772756812801231430e-01
3.546509000000000015e+03,1.703092338682665741e-01,2.688529241159662853e-01
3.548436999999999898e+03,1.692115633495188121e-01,2.539999067385938503e-01
3.550365999999999985e+03,1.681038429486321206e-01,2.390386829440871441e-01
3.552294000000000324e+03,1.669872211574681131e-01,2.406669757817805344e-01
3.554222999999999956e+03,1.658605396546679600e-01,2.605082963323468448e-01
3.556150999999999840e+03,1.647249665910859306e-01,2.885931660414693400e-01
3.558079999999999927e+03,1.635793239863705395e-01,3.260040737567118097e-01
3.560007999999999811e+03,1.624247996503775937e-01,3.629755713497766489e-01
3.561936999999999898e+03,1.612601959437487409e-01,3.778068932508718003e-01
3.563864999999999782e+03,1.600867203353359969e-01,3.750856401531474926e-01
3.565794000000000324e+03,1.589031555267954587e-01,3.599908002623528613e-01
3.567722000000000207e+03,1.577107286459682456e-01,3.572637650934040732e-01
3.569650999999999840e+03,1.565082027355142458e-01,3.955060189370780410e-01
3.571579000000000178e+03,1.552968245822725635e-01,4.283582998573625122e-01
3.573507999999999811e+03,1.540753375699051020e-01,4.230687341567913595e-01
3.575435999999999694e+03,1.528450081442453978e-01,3.725592274408524585e-01
3.577364999999999782e+03,1.516045600299626983e-01,3.005255991909370206e-01
3.579292999999999665e+03,1.503552793318920777e-01,2.384637035093510882e-01
3.581222000000000207e+03,1.490958701156941402e-01,1.870465011936273125e-01
3.583150000000000091e+03,1.478276381452072741e-01,1.491440730930058134e-01
3.585079000000000178e+03,1.465492678270976512e-01,1.221506857978831295e-01
3.587007000000000062e+03,1.452620845841927633e-01,8.388461506026545500e-02
3.588935999999999694e+03,1.439647531641696787e-01,5.225181817606849854e-02
3.590864000000000033e+03,1.426586186488503216e-01,5.746813973729913982e-02
3.592792999999999665e+03,1.413423261269119990e-01,6.340956751971038585e-02
3.594720999999999549e+03,1.400172403391781728e-01,6.556863073826790789e-02
3.596650000000000091e+03,1.386819867153263885e-01,6.851773503455782510e-02
3.598577999999999975e+03,1.373379496551780932e-01,7.059527031699697197e-02
3.600507000000000062e+03,1.359837349294128472e-01,7.019109889343466691e-02
3.602434999999999945e+03,1.346207465968500827e-01,7.661978517003831257e-02
3.604364000000000033e+03,1.332475707691713751e-01,7.463695543271464672e-02
3.606291999999999916e+03,1.318656311641888124e-01,6.194639542415569800e-02
3.608220999999999549e+03,1.304734942345984194e-01,4.421888480389291054e-02
3.610149000000000342e+03,1.290726033572013876e-01,2.505245461157268316e-02
3.612077999999999975e+03,1.276615053256975330e-01,8.074311647559451188e-03
3.614005999999999858e+03,1.262416631758842556e-01,5.347454152914377090e-03
3.615934999999999945e+03,1.248116040424651629e-01,4.338960186936580143e-03
3.617862999999999829e+03,1.233728106202391928e-01,-5.342203107485898883e-03
