wavenumber (/cm),baseline value (/cm),baseline-subtracted absorbance (/cm),
3.290019000000000233e+03,2.055969245107256427e-01,-8.104628079763642745e-15
3.291947000000000116e+03,2.058440972548627457e-01,-3.529509361303029280e-04
3.293875000000000000e+03,2.060811476740820325e-01,-9.987485045936717043e-03
3.295804000000000087e+03,2.063081908432256029e-01,-9.416112558043920888e-03
3.297731999999999971e+03,2.065249913624338518e-01,-5.508681949572824532e-03
3.299660999999999603e+03,2.067317741285084054e-01,1.362540876151285829e-03
3.301589000000000397e+03,2.069283247477091692e-01,4.899168262542386021e-03
3.303518000000000029e+03,2.071148471107129296e-01,5.400809925633631714e-03
3.305447000000000116e+03,2.072912366457355660e-01,5.252752170666952214e-03
3.307375000000000000e+03,2.074574097898356229e-01,6.619011458999346509e-03
3.309302999999999884e+03,2.076134606090160872e-01,1.466781702260611109e-03
3.311231999999999971e+03,2.077594621658782614e-01,4.055635690598802245e-03
3.313159999999999854e+03,2.078952630850476879e-01,-3.540701679928259793e-04
3.315089000000000397e+03,2.080210042388443981e-01,1.093627634408067539e-03
3.317017000000000280e+03,2.081365552580010103e-01,3.653659094282224462e-03
3.318945999999999913e+03,2.082420360087251510e-01,1.187134541135004273e-03
3.320875000000000000e+03,2.083373839314699438e-01,-2.465715711525984233e-03
3.322802999999999884e+03,2.084225574755311783e-01,-3.116965676836003230e-03
3.324730999999999767e+03,2.084976086946674911e-01,-1.122585395506303652e-03
3.326659999999999854e+03,2.085625686392535982e-01,4.672193709301775133e-03
3.328587999999999738e+03,2.086173699583806496e-01,2.589619789988284460e-03
3.330517000000000280e+03,2.086620694998959635e-01,3.728983622191539560e-03
3.332445000000000164e+03,2.086966209190155297e-01,2.439196215249239685e-04
3.334374000000000251e+03,2.087210600574582742e-01,1.088446000323539664e-03
3.336302000000000135e+03,2.087353615765685788e-01,-1.456796804900406528e-03
3.338230999999999767e+03,2.087395403119423065e-01,-1.562839473172594751e-03
3.340159000000000106e+03,2.087335919310415733e-01,-4.970588462326896995e-04
3.342087999999999738e+03,2.087175102633462842e-01,4.420607164426160196e-03
3.344015999999999622e+03,2.086913119824362894e-01,3.859107402465755676e-03
3.345945000000000164e+03,2.086549699116702072e-01,2.065719743502114625e-03
3.347873000000000047e+03,2.086085217307509510e-01,5.450658138773656347e-03
3.349802000000000135e+03,2.085519192569140756e-01,1.420269397700940628e-02
3.351730000000000018e+03,2.084852211759837814e-01,1.836771451833113522e-02
3.353659000000000106e+03,2.084083582990778893e-01,2.371764356485489555e-02
3.355586999999999989e+03,2.083214103181383337e-01,3.024587765949438012e-02
3.357515999999999622e+03,2.082242870381616484e-01,2.458456664310570972e-02
3.359444000000000415e+03,2.081170891572110548e-01,1.444013358277024262e-02
3.361373000000000047e+03,2.079997054741671292e-01,1.688631502909465620e-02
3.363302000000000135e+03,2.078721889631385267e-01,1.708829565941499817e-02
3.365230000000000018e+03,2.077346136070907789e-01,1.323202199402745416e-02
3.367157999999999902e+03,2.075869159261181096e-01,5.424081277982495397e-03
3.369086999999999989e+03,2.074290114369343740e-01,8.244834372500564612e-04
3.371014999999999873e+03,2.072610638559542195e-01,-5.303095542813551777e-03
3.372944000000000415e+03,2.070828989636961381e-01,-1.337069020321152157e-02
3.374872000000000298e+03,2.068947014827067221e-01,-2.036506494962203595e-02
3.376800999999999931e+03,2.066962761873814003e-01,-2.207959398794068218e-02
3.378729000000000269e+03,2.064878288063809464e-01,-1.865101613163727690e-02
3.380657999999999902e+03,2.062691431079848314e-01,-2.171331831767736587e-02
3.382585999999999785e+03,2.060404458269751160e-01,-3.042693231346171867e-02
3.384514999999999873e+03,2.058014997255099843e-01,-3.703421174787729919e-02
3.386442999999999756e+03,2.055525525444892310e-01,-3.391108003749959687e-02
3.388372000000000298e+03,2.052933460399533061e-01,-2.672596486567563323e-02
3.390300000000000182e+03,2.050241489589250676e-01,-2.508938661036974604e-02
3.392229000000000269e+03,2.047446820513165733e-01,-1.819090758719732470e-02
3.394157000000000153e+03,2.044552350702790733e-01,-2.052056591836859401e-02
3.396085999999999785e+03,2.041555077596015622e-01,-2.857917970741152836e-02
3.398014000000000124e+03,2.038458108785530243e-01,-3.430284722524462593e-02
3.399942999999999756e+03,2.035258231648064964e-01,-3.187037116107871437e-02
3.401870999999999640e+03,2.031958763837469206e-01,-3.565030322438078603e-02
3.403800000000000182e+03,2.028556282669313759e-01,-3.015907654279353922e-02
3.405728000000000065e+03,2.025054315858607623e-01,-2.412379132491027089e-02
3.407657000000000153e+03,2.021449230659762009e-01,-2.256104608554759805e-02
3.409585000000000036e+03,2.017744764848981021e-01,-2.289330220717217257e-02
3.411514000000000124e+03,2.013937075619391948e-01,-2.282940187694393330e-02
3.413442000000000007e+03,2.010030110808518344e-01,-2.486759635578206229e-02
3.415370999999999640e+03,2.006019817548239104e-01,-2.498008054326761318e-02
3.417299000000000433e+03,2.001910353737255122e-01,-2.115496827214130571e-02
3.419228000000000065e+03,1.997697456446267950e-01,-1.871820789998568380e-02
3.421155999999999949e+03,1.993385493635191352e-01,-3.062494265336074273e-02
3.423085000000000036e+03,1.988969992313549540e-01,-2.991563856033918611e-02
3.425012999999999920e+03,1.984455530502344800e-01,-2.104741698313294940e-02
3.426942000000000007e+03,1.979837425149977292e-01,-5.945811480515039715e-03
3.428869999999999891e+03,1.975120464338679938e-01,-5.115681103020019993e-03
3.430799000000000433e+03,1.970299754955622262e-01,-1.377974250395003208e-02
3.432727000000000317e+03,1.965380295144250056e-01,-1.343896148087431186e-02
3.434655999999999949e+03,1.960356981730466686e-01,-1.036160684033471391e-02
3.436584000000000287e+03,1.955235022918984100e-01,-4.459196606903192972e-03
3.438512999999999920e+03,1.950009105474510562e-01,-3.701656120610463674e-03
3.440440999999999804e+03,1.944684647662935362e-01,1.226815524388857881e-04
3.442369999999999891e+03,1.939256126187753893e-01,1.150523547069332020e-02
3.444297999999999774e+03,1.933729169376086077e-01,4.708909716631737297e-03
3.446227000000000317e+03,1.928098043870214440e-01,-1.234363476912775370e-02
3.448155000000000200e+03,1.922368588058454009e-01,-1.220899300901417961e-02
3.450084000000000287e+03,1.916534858521856677e-01,3.006532787143245677e-03
3.452012000000000171e+03,1.910602903709985867e-01,8.513055388553958380e-03
3.453940999999999804e+03,1.904566570142716131e-01,8.008673833817758769e-03
3.455869000000000142e+03,1.898432116330734942e-01,8.606368982024326098e-03
3.457797999999999774e+03,1.892193178732757275e-01,1.870910710342504890e-02
3.459725999999999658e+03,1.885856225920683471e-01,2.367747153654287118e-02
3.461655000000000200e+03,1.879414684292015636e-01,1.748854089046286697e-02
3.463583000000000084e+03,1.872875232479831453e-01,2.862664264204473064e-02
3.465512000000000171e+03,1.866231086820473450e-01,4.657213828906159314e-02
3.467440000000000055e+03,1.859489136008178889e-01,4.857811342620904638e-02
3.469369000000000142e+03,1.852642386318112955e-01,6.440733639148782386e-02
3.471297000000000025e+03,1.845697936505743542e-01,8.679087736526891472e-02
3.473225999999999658e+03,1.838648582784969676e-01,9.498406996008634806e-02
3.475154000000000451e+03,1.831501633972489884e-01,9.175496241822156396e-02
3.477083000000000084e+03,1.824249676221008087e-01,1.018330938876847447e-01
3.479010999999999967e+03,1.816900228408453444e-01,1.060041057705245482e-01
3.480940000000000055e+03,1.809445666626245952e-01,1.140183410726968716e-01
3.482867999999999938e+03,1.801893719813598693e-01,1.243712990344834624e-01
3.484797000000000025e+03,1.794236554000736561e-01,1.303664657555646533e-01
3.486724999999999909e+03,1.786482108187943396e-01,1.279751815390807179e-01
3.488654000000000451e+03,1.778622338344373333e-01,1.389930317760005862e-01
3.490582000000000335e+03,1.770665393531505316e-01,1.452188287735968197e-01
3.492510999999999967e+03,1.762603019657227321e-01,1.453298191899155545e-01
3.494439000000000306e+03,1.754443575844266690e-01,1.415390534127773381e-01
3.496367999999999938e+03,1.746178597939280763e-01,1.463393629460532086e-01
3.498295999999999822e+03,1.737816655126227516e-01,1.637164705544787435e-01
3.500224999999999909e+03,1.729349073190515895e-01,1.768923992979101190e-01
3.502152999999999793e+03,1.720784631377370033e-01,1.825409217644064497e-01
3.504082000000000335e+03,1.712114445410986008e-01,1.945550978633747707e-01
3.506010000000000218e+03,1.703347504597712003e-01,2.142065356539286647e-01
3.507939000000000306e+03,1.694474714600637810e-01,2.181247559397497260e-01
3.509867000000000189e+03,1.685505274787288954e-01,2.175000782994629955e-01
3.511795999999999822e+03,1.676429880759506830e-01,2.483338991561088727e-01
3.513724000000000160e+03,1.667257941946047595e-01,2.819321741185358832e-01
3.515652999999999793e+03,1.657979943887557539e-01,3.133272619020177063e-01
3.517580999999999676e+03,1.648605506074005689e-01,3.319336432416207794e-01
3.519510000000000218e+03,1.639124903984789938e-01,3.477706596481192625e-01
3.521438000000000102e+03,1.629547967171145473e-01,3.633642153984492085e-01
3.523367000000000189e+03,1.619864761051275082e-01,3.712620700272116769e-01
3.525295000000000073e+03,1.610085325237502474e-01,3.725990630028107597e-01
3.527224000000000160e+03,1.600199515086924151e-01,3.660591072051937456e-01
3.529152000000000044e+03,1.590217580273058928e-01,3.587347098198515605e-01
3.531080999999999676e+03,1.580129166091790438e-01,3.533112958791713165e-01
3.533009000000000015e+03,1.569944732277832600e-01,3.377574745820954849e-01
3.534938000000000102e+03,1.559653714065838415e-01,3.331227553408531716e-01
3.536865999999999985e+03,1.549266781251787961e-01,3.363164532820904773e-01
3.538795000000000073e+03,1.538773159009085845e-01,3.448334203525861841e-01
3.540722999999999956e+03,1.528183727194942776e-01,3.674056347362372188e-01
3.542652000000000044e+03,1.517487500921550492e-01,3.913743347167917275e-01
3.544579999999999927e+03,1.506695570107297044e-01,3.929578614422059024e-01
3.546509000000000015e+03,1.495796739803232356e-01,3.762243334754082902e-01
3.548436999999999898e+03,1.484802309988850766e-01,3.607302349843394262e-01
3.550365999999999985e+03,1.473700875654078146e-01,3.583187101978726474e-01
3.552294000000000324e+03,1.462503946839639468e-01,3.549278252601180128e-01
3.554222999999999956e+03,1.451199908474141154e-01,3.863566913520266599e-01
3.556150999999999840e+03,1.439800480659609860e-01,4.218116816637687005e-01
3.558079999999999927e+03,1.428293838263403615e-01,4.644748938996614562e-01
3.560007999999999811e+03,1.416691911448761942e-01,5.086829337386279404e-01
3.561936999999999898e+03,1.404982665021847765e-01,5.285103075891478541e-01
3.563864999999999782e+03,1.393178239207113478e-01,5.101041611678254206e-01
3.565794000000000324e+03,1.381266388749526897e-01,4.706876108920555746e-01
3.567722000000000207e+03,1.369259463934664467e-01,4.767073714070926282e-01
3.569650999999999840e+03,1.357145009446405481e-01,5.405022744514450528e-01
3.571579000000000178e+03,1.344935585631414909e-01,5.828406446055443002e-01
3.573507999999999811e+03,1.332618527112447993e-01,5.700255657416908317e-01
3.575435999999999694e+03,1.320206604297400332e-01,5.025930860753856644e-01
3.577364999999999782e+03,1.307686941747707721e-01,4.075278575493670452e-01
3.579292999999999665e+03,1.295072519932585209e-01,3.146284423217460269e-01
3.581222000000000207e+03,1.282350253352166902e-01,2.503337537887347919e-01
3.583150000000000091e+03,1.269533332536934012e-01,1.965969929345637857e-01
3.585079000000000178e+03,1.256608461925825537e-01,1.489834222137547126e-01
3.587007000000000062e+03,1.243589042110482268e-01,9.859002402753508365e-02
3.588935999999999694e+03,1.230461567468683626e-01,8.988963076478118097e-02
3.590864000000000033e+03,1.217239648653247741e-01,9.552086272088200491e-02
3.592792999999999665e+03,1.203909569980776695e-01,9.644995632904246330e-02
3.594720999999999549e+03,1.190485152165230431e-01,9.162501693631930344e-02
3.596650000000000091e+03,1.176952469462033690e-01,9.603802425603330528e-02
3.598577999999999975e+03,1.163325552646394812e-01,8.259559012212652762e-02
3.600507000000000062e+03,1.149590265912490139e-01,7.635038626988788213e-02
3.602434999999999945e+03,1.135760850096758645e-01,9.461021508352068787e-02
3.604364000000000033e+03,1.121822959332146041e-01,1.096519072354712465e-01
3.606291999999999916e+03,1.107791044516321932e-01,9.231409219328851057e-02
3.608220999999999549e+03,1.093650549721019161e-01,5.278685555911888372e-02
3.610149000000000342e+03,1.079416135905084673e-01,2.548550663316340170e-02
3.612077999999999975e+03,1.065073037079109497e-01,1.852428995471711026e-02
3.614005999999999858e+03,1.050636124263046867e-01,1.204095420929629512e-02
3.615934999999999945e+03,1.036090421406363760e-01,1.738294294790032612e-02
3.617862999999999829e+03,1.021451009590244041e-01,6.229176766977373436e-03
