wavenumber (/cm),baseline value (/cm),baseline-subtracted absorbance (/cm),
3.290019000000000233e+03,3.100652376514485553e-01,-1.776356839400250465e-15
3.291947000000000116e+03,3.096065176203985914e-01,-3.688530667927736317e-03
3.293875000000000000e+03,3.091400559826471550e-01,-3.604175274350751579e-03
3.295804000000000087e+03,3.086656047734361863e-01,-2.468027886200374610e-03
3.297731999999999971e+03,3.081836559069301984e-01,-9.904828832674184014e-07
3.299660999999999603e+03,3.076937094361671399e-01,9.146924301019154768e-03
3.301589000000000397e+03,3.071962733409030477e-01,1.172785372986595576e-03
3.303518000000000029e+03,3.066908316085896757e-01,-9.561288272150747503e-03
3.305447000000000116e+03,3.061776402367808458e-01,-7.538311252622165171e-03
3.307375000000000000e+03,3.056569712907037939e-01,-6.980363648576570768e-03
3.309302999999999884e+03,3.051285607379252696e-01,2.690637770930592865e-03
3.311231999999999971e+03,3.045921284825094943e-01,5.864535077604315916e-03
3.313159999999999854e+03,3.040482307009746421e-01,2.294953008910027847e-04
3.315089000000000397e+03,3.034963031840067771e-01,-8.308791392703795964e-04
3.317017000000000280e+03,3.029369181737155969e-01,4.845001677171723031e-03
3.318945999999999913e+03,3.023694953951956421e-01,5.365826133234108397e-03
3.320875000000000000e+03,3.017943229771802294e-01,2.064018122540645095e-03
3.322802999999999884e+03,3.012117051160760894e-01,-5.220499436617842548e-04
3.324730999999999767e+03,3.006213456482722535e-01,4.662904118736932446e-03
3.326659999999999854e+03,3.000229323466498954e-01,1.119794370181459442e-02
3.328587999999999738e+03,2.994170856500897315e-01,7.153277816827952051e-03
3.330517000000000280e+03,2.988031770869135073e-01,-9.280605911037298483e-04
3.332445000000000164e+03,2.981818431615970155e-01,2.284140063007811250e-03
3.334374000000000251e+03,2.975524393368704779e-01,7.880925062014654259e-03
3.336302000000000135e+03,2.969156181827958818e-01,6.159871099592706400e-03
3.338230999999999767e+03,2.962707190965190307e-01,4.232542786056114892e-03
3.340159000000000106e+03,2.956184107136881067e-01,3.757171765343514380e-03
3.342087999999999738e+03,2.949580163658591658e-01,3.028936103854462658e-03
3.344015999999999622e+03,2.942902207542719140e-01,7.806703756447319620e-03
3.345945000000000164e+03,2.936143311448908833e-01,1.876218330059131745e-02
3.347873000000000047e+03,2.929310483045455271e-01,2.379774945873691649e-02
3.349802000000000135e+03,2.922396634336141830e-01,1.883209798297791338e-02
3.351730000000000018e+03,2.915408933645124989e-01,1.090085873241442016e-02
3.353659000000000106e+03,2.908340132320290650e-01,1.603457949863518195e-02
3.355586999999999989e+03,2.901197559341728294e-01,3.091472682444873499e-02
3.357515999999999622e+03,2.893973805401355293e-01,2.776944145427506783e-02
3.359444000000000415e+03,2.886676360135229658e-01,3.112733136765299946e-02
3.361373000000000047e+03,2.879297653579353522e-01,3.138989913414569344e-02
3.363302000000000135e+03,2.871841450628522807e-01,2.041138149819410330e-02
3.365230000000000018e+03,2.864311676854267574e-01,1.564711749630909310e-02
3.367157999999999902e+03,2.856704487012997618e-01,8.905506564312659634e-03
3.369086999999999989e+03,2.849015875226097450e-01,5.005215832470710779e-03
3.371014999999999873e+03,2.841253813097246450e-01,-3.975155128905782931e-04
3.372944000000000415e+03,2.833410248694825384e-01,-6.463112474325072299e-03
3.374872000000000298e+03,2.825493314278428869e-01,-1.486992788636776197e-02
3.376800999999999931e+03,2.817494797260486905e-01,-1.208498764776066992e-02
3.378729000000000269e+03,2.809422990556527111e-01,-1.898516951231421501e-02
3.380657999999999902e+03,2.801269520923064249e-01,-2.555099682669492722e-02
3.382585999999999785e+03,2.793042841931541176e-01,-1.512907450070066773e-02
3.384514999999999873e+03,2.784734419682557416e-01,-3.813609722213229247e-03
3.386442999999999756e+03,2.776352868403453300e-01,-5.911148909309105193e-03
3.388372000000000298e+03,2.767889493538966406e-01,-1.722697358502145448e-02
3.390300000000000182e+03,2.759353069972299011e-01,-1.495674222555898325e-02
3.392229000000000269e+03,2.750734742492308982e-01,-1.018065039088789092e-02
3.394157000000000153e+03,2.742043446638078308e-01,-1.528542574488866990e-02
3.396085999999999785e+03,2.733270166542549617e-01,-1.660753855546204250e-02
3.398014000000000124e+03,2.724423998400755664e-01,-1.603047066952356658e-02
3.399942999999999756e+03,2.715495765689723839e-01,-2.247222335368626034e-02
3.401870999999999640e+03,2.706494725260348844e-01,-2.538386208800957888e-02
3.403800000000000182e+03,2.697411539933796121e-01,-2.532363302413287443e-02
3.405728000000000065e+03,2.688255627216875610e-01,-2.424960745607585011e-02
3.407657000000000153e+03,2.679017489274801989e-01,-2.521768555376091570e-02
3.409585000000000036e+03,2.669706704270300435e-01,-3.028847098620701672e-02
3.411514000000000124e+03,2.660313613712723679e-01,-3.817488420444803410e-02
3.413442000000000007e+03,2.650847956420658846e-01,-3.690213021801902471e-02
3.415370999999999640e+03,2.641299913247561193e-01,-2.309550856613284964e-02
3.417299000000000433e+03,2.631679383667933081e-01,-1.480819931739674189e-02
3.419228000000000065e+03,2.621976387879314530e-01,-1.732345425857317878e-02
3.421155999999999949e+03,2.612200986012140902e-01,-1.767862609422188314e-02
3.423085000000000036e+03,2.602343037607983689e-01,-9.227779995651275158e-03
3.425012999999999920e+03,2.592412763453246782e-01,-1.412758171976946642e-03
3.426942000000000007e+03,2.582399862433604198e-01,1.046458039223985281e-02
3.428869999999999891e+03,2.572314715991268486e-01,1.631932057235552236e-02
3.430799000000000433e+03,2.562146862356087240e-01,1.160451227324799106e-02
3.432727000000000317e+03,2.551906843626206012e-01,4.296734090317499977e-03
3.434655999999999949e+03,2.541584037375539395e-01,-5.658869720777559564e-03
3.436584000000000287e+03,2.531189146358077124e-01,-1.434911034875874236e-02
3.438512999999999920e+03,2.520711387491871847e-01,-8.119601004544563239e-03
3.440440999999999804e+03,2.510161624186846296e-01,2.419922877479052659e-04
3.442369999999999891e+03,2.499528912705137884e-01,-4.668641503503323520e-03
3.444297999999999774e+03,2.488824277112549055e-01,1.518317861906481880e-03
3.446227000000000317e+03,2.478036613015319745e-01,2.075183060075147523e-03
3.448155000000000200e+03,2.467177105135149873e-01,-4.658064660764793530e-03
3.450084000000000287e+03,2.456234488422417428e-01,-6.359702337114470083e-03
3.452012000000000171e+03,2.445220108254684277e-01,-1.064415298905885265e-03
3.453940999999999804e+03,2.434122538926430934e-01,7.612909201487383370e-03
3.455869000000000142e+03,2.422953286471134504e-01,6.111008724744237952e-03
3.457797999999999774e+03,2.411700764527360263e-01,1.211976511297052639e-02
3.459725999999999658e+03,2.400376639784500554e-01,2.641154385007027372e-02
3.461655000000000200e+03,2.388969165225205415e-01,2.476571162286766992e-02
3.463583000000000084e+03,2.377490168194800191e-01,1.663122549179796295e-02
3.465512000000000171e+03,2.365927741019984154e-01,2.778746820928112982e-02
3.467440000000000055e+03,2.354293871701997887e-01,5.837303594256937345e-02
3.469369000000000142e+03,2.342576491911678715e-01,6.771811968115315494e-02
3.471297000000000025e+03,2.330787750306111406e-01,6.433967790508710038e-02
3.473225999999999658e+03,2.318915417900271336e-01,7.021470238518467966e-02
3.475154000000000451e+03,2.306971804007158511e-01,7.754140301028300541e-02
3.477083000000000084e+03,2.294944518985797544e-01,8.578047820393841505e-02
3.479010999999999967e+03,2.282846032805121439e-01,8.844419448277029971e-02
3.480940000000000055e+03,2.270663795168239574e-01,9.514238096780047726e-02
3.482867999999999938e+03,2.258410436700000190e-01,1.108131967773449134e-01
3.484797000000000025e+03,2.246073246447597427e-01,1.223917433887926620e-01
3.486724999999999909e+03,2.233665015691794764e-01,1.152169094280282025e-01
3.488654000000000451e+03,2.221172872823871103e-01,1.098678012544276328e-01
3.490582000000000335e+03,2.208609769780505161e-01,1.235099456687365205e-01
3.492510999999999967e+03,2.195962674297078365e-01,1.310188304267718706e-01
3.494439000000000306e+03,2.183244698966131381e-01,1.252449616038546765e-01
3.496367999999999938e+03,2.170442650867201451e-01,1.235521934407763922e-01
3.498295999999999822e+03,2.157569803248673423e-01,1.319597018745763961e-01
3.500224999999999909e+03,2.144612802534222595e-01,1.329944513402416817e-01
3.502152999999999793e+03,2.131585082628131289e-01,1.439430760801521103e-01
3.504082000000000335e+03,2.118473129298159563e-01,1.745739359052294049e-01
3.506010000000000218e+03,2.105290537104522741e-01,1.920897720118244223e-01
3.507939000000000306e+03,2.092023631159030117e-01,1.995767608356349143e-01
3.509867000000000189e+03,2.078686166677812253e-01,2.072944774608309615e-01
3.511795999999999822e+03,2.065264308116816494e-01,2.198761786943794760e-01
3.513724000000000160e+03,2.051771971348035351e-01,2.467426537505659212e-01
3.515652999999999793e+03,2.038195160171518694e-01,2.743072314199430650e-01
3.517580999999999676e+03,2.024547951115174271e-01,2.993252608064711495e-01
3.519510000000000218e+03,2.010816187323136717e-01,3.293004875118654695e-01
3.521438000000000102e+03,1.997014105979229015e-01,3.437934635866088939e-01
3.523367000000000189e+03,1.983127389571670562e-01,3.385372144445124576e-01
3.525295000000000073e+03,1.969170435940199582e-01,3.456272248123184454e-01
3.527224000000000160e+03,1.955128766917120231e-01,3.504796675766961300e-01
3.529152000000000044e+03,1.941016940998085971e-01,3.377901977920849674e-01
3.531080999999999676e+03,1.926820319359503486e-01,3.212042681572455649e-01
3.533009000000000015e+03,1.912553621152888184e-01,3.186421215753014735e-01
3.534938000000000102e+03,1.898202046898784801e-01,3.059300283017361011e-01
3.536865999999999985e+03,1.883780476404606219e-01,3.016312720240339473e-01
3.538795000000000073e+03,1.869273949534999701e-01,3.183288958200343188e-01
3.540722999999999956e+03,1.854697506753275604e-01,3.350055522137704855e-01
3.542652000000000044e+03,1.840036027268130425e-01,3.440858660523122836e-01
3.544579999999999927e+03,1.825304712198825285e-01,3.464630050149732909e-01
3.546509000000000015e+03,1.810488280098159208e-01,3.408523835465704366e-01
3.548436999999999898e+03,1.795602092741308553e-01,3.339160255814164202e-01
3.550365999999999985e+03,1.780630708025121578e-01,3.134280755162226484e-01
3.552294000000000324e+03,1.765589648380689880e-01,3.011204387034069896e-01
3.554222999999999956e+03,1.750463311049017534e-01,3.352425784943555698e-01
3.556150999999999840e+03,1.735267379117004793e-01,3.833884531414231134e-01
3.558079999999999927e+03,1.719986089169811549e-01,4.259044665723035195e-01
3.560007999999999811e+03,1.704635284950235530e-01,4.647088852980818530e-01
3.561936999999999898e+03,1.689199042387539151e-01,4.835032085291874893e-01
3.563864999999999782e+03,1.673693365880399853e-01,4.789680352665754981e-01
3.565794000000000324e+03,1.658102170702164813e-01,4.498747782699545894e-01
3.567722000000000207e+03,1.642441621907462235e-01,4.530344957775689352e-01
3.569650999999999840e+03,1.626695474113724060e-01,5.174329688980421338e-01
3.571579000000000178e+03,1.610880053031440440e-01,5.600676330938760827e-01
3.573507999999999811e+03,1.594978952622181367e-01,5.519839313920247292e-01
3.575435999999999694e+03,1.579008659252352231e-01,4.966005320244413213e-01
3.577364999999999782e+03,1.562952606227572261e-01,4.107504057332569403e-01
3.579292999999999665e+03,1.546827440570162082e-01,3.113004805468992942e-01
3.581222000000000207e+03,1.530616434929878977e-01,2.330240974203423576e-01
3.583150000000000091e+03,1.514336396984905520e-01,1.865253537777462611e-01
3.585079000000000178e+03,1.497970438729101517e-01,1.485254165185185826e-01
3.587007000000000062e+03,1.481535528496564780e-01,1.135985440748541464e-01
3.588935999999999694e+03,1.465014617625239879e-01,9.833544410886752019e-02
3.590864000000000033e+03,1.448424835105122099e-01,1.116719619694528376e-01
3.592792999999999665e+03,1.431748971618294064e-01,1.229201634159924339e-01
3.594720999999999549e+03,1.415004316810630769e-01,1.253774807140928260e-01
3.596650000000000091e+03,1.398173500708264072e-01,1.260819975526601411e-01
3.598577999999999975e+03,1.381273973613037498e-01,1.146125839993690221e-01
3.600507000000000062e+03,1.364288204895149903e-01,9.295608165401070266e-02
3.602434999999999945e+03,1.347233805512360050e-01,9.736422429499214104e-02
3.604364000000000033e+03,1.330093084178969320e-01,1.050708406967402198e-01
3.606291999999999916e+03,1.312883812508616188e-01,8.826427485352184021e-02
3.608220999999999549e+03,1.295588138559704561e-01,4.347007710395622837e-02
3.610149000000000342e+03,1.278223994601770386e-01,1.365942719406554318e-02
3.612077999999999975e+03,1.260773368037337860e-01,-3.635584706808359101e-03
3.614005999999999858e+03,1.243254351791858170e-01,-1.313251812419835574e-02
3.615934999999999945e+03,1.225648772611922510e-01,-1.166927587378907560e-03
3.617862999999999829e+03,1.207974884078861777e-01,-5.365378021053857083e-04
