wavenumber (/cm),baseline value (/cm),baseline-subtracted absorbance (/cm),
3.290019000000000233e+03,3.832982292637403532e-01,5.773159728050814010e-15
3.291947000000000116e+03,3.823073413724209502e-01,-1.481619098422815028e-03
3.293875000000000000e+03,3.813101530916958026e-01,7.403733208397600407e-03
3.295804000000000087e+03,3.803061423051259382e-01,1.788863868275836211e-02
3.297731999999999971e+03,3.792963499777544101e-01,2.364493613594564891e-02
3.299660999999999603e+03,3.782797286071675202e-01,1.975195825210551703e-02
3.301589000000000397e+03,3.772573322331487233e-01,5.437914737960181100e-03
3.303518000000000029e+03,3.762281002785483608e-01,-5.131175767831397394e-03
3.305447000000000116e+03,3.751925613971724971e-01,5.081436738894495875e-03
3.307375000000000000e+03,3.741512573192657953e-01,1.455424128278437479e-02
3.309302999999999884e+03,3.731036528519542372e-01,1.426447389548268774e-02
3.311231999999999971e+03,3.720491997293233766e-01,7.825916766482698961e-03
3.313159999999999854e+03,3.709889912153645497e-01,-7.858225294370413394e-04
3.315089000000000397e+03,3.699219275087175518e-01,3.087392155774359992e-03
3.317017000000000280e+03,3.688491149481132325e-01,1.161314041069383407e-02
3.318945999999999913e+03,3.677694406574500974e-01,1.006280538169246341e-02
3.320875000000000000e+03,3.666834594400150138e-01,-6.484018619884679424e-03
3.322802999999999884e+03,3.655917391755219015e-01,1.133330721961645082e-03
3.324730999999999767e+03,3.644937185216230446e-01,1.798065240102442175e-02
3.326659999999999854e+03,3.633888230629294114e-01,1.881900545524306523e-02
3.328587999999999738e+03,3.622781983623850621e-01,7.394681413943171577e-03
3.330517000000000280e+03,3.611606923196770680e-01,7.794573290760276052e-03
3.332445000000000164e+03,3.600374635724854500e-01,1.915731741539827837e-02
3.334374000000000251e+03,3.589073469457604304e-01,3.334801186132230200e-02
3.336302000000000135e+03,3.577715141519224318e-01,3.797499097389289702e-02
3.338230999999999767e+03,3.566287869411848277e-01,3.647000150243151495e-02
3.340159000000000106e+03,3.554803501006995603e-01,4.185608978746424569e-02
3.342087999999999738e+03,3.543250123059449308e-01,4.099558415258242050e-02
3.344015999999999622e+03,3.531639714188132828e-01,2.496184405182955146e-02
3.345945000000000164e+03,3.519960230400442924e-01,1.518757435044948423e-02
3.347873000000000047e+03,3.508223781062662638e-01,2.341993317052715184e-02
3.349802000000000135e+03,3.496418191434820244e-01,3.475613053032944322e-02
3.351730000000000018e+03,3.484555701630576152e-01,4.019867028428603106e-02
3.353659000000000106e+03,3.472624006162572385e-01,4.716909984972605940e-02
3.355586999999999989e+03,3.460635475891855606e-01,5.240802743411343556e-02
3.357515999999999622e+03,3.448577674583717112e-01,4.675546646520656324e-02
3.359444000000000415e+03,3.436463103846527645e-01,4.654567470388437656e-02
3.361373000000000047e+03,3.424279196698218897e-01,4.415362739448358553e-02
3.363302000000000135e+03,3.412032220282181783e-01,3.570171739396243993e-02
3.365230000000000018e+03,3.399728572506113267e-01,3.379228720418847587e-02
3.367157999999999902e+03,3.387361920836005069e-01,2.013333261351002434e-02
3.369086999999999989e+03,3.374925802007382458e-01,1.095849156067885133e-02
3.371014999999999873e+03,3.362433109870801573e-01,1.182938239595765495e-02
3.372944000000000415e+03,3.349870885202044235e-01,9.989612318565654903e-03
3.374872000000000298e+03,3.337252152598990662e-01,7.582333668339380495e-03
3.376800999999999931e+03,3.324563822090071952e-01,4.799908564525168231e-03
3.378729000000000269e+03,3.311819049020554573e-01,1.224866359747833755e-02
3.380657999999999902e+03,3.299004612671501135e-01,-4.656286057457936778e-03
3.382585999999999785e+03,3.286133799135519951e-01,-1.304767627888292481e-02
3.384514999999999873e+03,3.273193256946287377e-01,-6.001525135448826376e-03
3.386442999999999756e+03,3.260196402943842386e-01,-1.695533460938847270e-02
3.388372000000000298e+03,3.247129754914475086e-01,-2.072695498818566406e-02
3.390300000000000182e+03,3.234006860445557408e-01,-1.280515948351235167e-02
3.392229000000000269e+03,3.220814106576037616e-01,-5.387095652943596491e-03
3.394157000000000153e+03,3.207565171640656132e-01,-7.156330770775820582e-03
3.396085999999999785e+03,3.194246311930974969e-01,-2.182351283335881575e-02
3.398014000000000124e+03,3.180871336529120796e-01,-2.391006002756279614e-02
3.399942999999999756e+03,3.167426370979304906e-01,-8.443475867734751006e-03
3.401870999999999640e+03,3.153925355110986928e-01,-1.005889152228212069e-02
3.403800000000000182e+03,3.140354283720991901e-01,-2.152191485858612197e-02
3.405728000000000065e+03,3.126727227386210117e-01,-2.120673951401697011e-02
3.407657000000000153e+03,3.113030050156080364e-01,-1.880813083107923944e-02
3.409585000000000036e+03,3.099276953354834774e-01,-1.268258815934242278e-02
3.411514000000000124e+03,3.085453670284534766e-01,-1.415953291848159878e-02
3.413442000000000007e+03,3.071574533016825370e-01,-2.490861825974333144e-02
3.415370999999999640e+03,3.057625144106390636e-01,-2.389392167997694827e-02
3.417299000000000433e+03,3.043619966372199670e-01,-1.778883727095736944e-02
3.419228000000000065e+03,3.029544471621603563e-01,-2.683795135600952619e-02
3.421155999999999949e+03,3.015413253420957673e-01,-2.521234118552539982e-02
3.423085000000000036e+03,3.001211652830217957e-01,-1.452750265487656733e-02
3.425012999999999920e+03,2.986954394163099380e-01,-2.131599714539245127e-03
3.426942000000000007e+03,2.972626687732207174e-01,1.352018304411384264e-02
3.428869999999999891e+03,2.958243388598624790e-01,1.384854091646525731e-02
3.430799000000000433e+03,2.943789576327562330e-01,-2.424623988767748983e-03
3.432727000000000317e+03,2.929280236727516140e-01,-1.261767884516551419e-02
3.434655999999999949e+03,2.914700318616318953e-01,-1.268252021205151792e-02
3.436584000000000287e+03,2.900064938549800075e-01,-8.917025075856344074e-03
3.438512999999999920e+03,2.885358914598441515e-01,-1.049581690252798793e-02
3.440440999999999804e+03,2.870597494065458832e-01,3.382002672656092557e-04
3.442369999999999891e+03,2.855765364273956664e-01,3.586557701215298266e-03
3.444297999999999774e+03,2.840877903274510174e-01,6.832992524366421350e-03
3.446227000000000317e+03,2.825919667642828870e-01,-1.127323423865389529e-02
3.448155000000000200e+03,2.810906166176918575e-01,-2.568148334649000830e-02
3.450084000000000287e+03,2.795821824705111425e-01,-1.754117594674609037e-02
3.452012000000000171e+03,2.780682282772728442e-01,-9.413987829929304496e-03
3.453940999999999804e+03,2.765471835460759920e-01,6.956078336496140935e-03
3.455869000000000142e+03,2.750206253061904249e-01,1.503436071431263343e-02
3.457797999999999774e+03,2.734869699909792118e-01,1.641330959895581643e-02
3.459725999999999658e+03,2.719478077044481523e-01,2.087139080440580940e-02
3.461655000000000200e+03,2.704015418052208020e-01,2.294887757968133712e-02
3.463583000000000084e+03,2.688497754720424737e-01,2.220987038070676434e-02
3.465512000000000171e+03,2.672908989887989861e-01,2.641646354614968217e-02
3.467440000000000055e+03,2.657265286089742773e-01,3.313367642364450916e-02
3.469369000000000142e+03,2.641550415417173170e-01,3.832864904542176987e-02
3.471297000000000025e+03,2.625780671152453394e-01,5.393171853247213932e-02
3.473225999999999658e+03,2.609939694639722418e-01,6.569754964134011388e-02
3.475154000000000451e+03,2.594043909908529955e-01,9.253037135770236787e-02
3.477083000000000084e+03,2.578076827555664252e-01,1.162258680366048402e-01
3.479010999999999967e+03,2.562055002358007982e-01,1.076192900717476419e-01
3.480940000000000055e+03,2.545961814164963144e-01,1.008781895061496847e-01
3.482867999999999938e+03,2.529813948500851950e-01,1.028601708535488157e-01
3.484797000000000025e+03,2.513594654467672385e-01,1.075324264451245071e-01
3.486724999999999909e+03,2.497320748337088503e-01,1.154449987916406073e-01
3.488654000000000451e+03,2.480975348463729802e-01,1.153050746596844256e-01
3.490582000000000335e+03,2.464575401866682114e-01,1.170941839512629201e-01
3.492510999999999967e+03,2.448103896153206449e-01,1.214952953800194635e-01
3.494439000000000306e+03,2.431577909089686074e-01,1.245887142168471406e-01
3.496367999999999938e+03,2.414980297536031273e-01,1.259241510478879000e-01
3.498295999999999822e+03,2.398328270006055973e-01,1.357729511913801090e-01
3.500224999999999909e+03,2.381604552612257564e-01,1.405450433408237387e-01
3.502152999999999793e+03,2.364826484615809576e-01,1.454586376521187496e-01
3.504082000000000335e+03,2.347976661381858676e-01,1.606114671330161059e-01
3.506010000000000218e+03,2.331072552918946883e-01,1.850316077090372602e-01
3.507939000000000306e+03,2.314096623844834610e-01,2.015129844002321313e-01
3.509867000000000189e+03,2.297066474915450129e-01,2.115244801878581882e-01
3.511795999999999822e+03,2.279964440001203130e-01,2.155394367081742146e-01
3.513724000000000160e+03,2.262808250605354843e-01,2.353156334669574967e-01
3.515652999999999793e+03,2.245580109850937589e-01,2.647523338424928596e-01
3.517580999999999676e+03,2.228297879988625496e-01,2.914339585062633020e-01
3.519510000000000218e+03,2.210943633394064634e-01,3.202569880119452428e-01
3.521438000000000102e+03,2.193535363065279853e-01,3.432447861538636680e-01
3.523367000000000189e+03,2.176055010630557618e-01,3.414550767561421729e-01
3.525295000000000073e+03,2.158520699835309031e-01,3.414247240518841764e-01
3.527224000000000160e+03,2.140914241560452069e-01,3.354677557134793098e-01
3.529152000000000044e+03,2.123253890298730795e-01,3.317799231788871595e-01
3.531080999999999676e+03,2.105521326183712461e-01,3.189324899352166121e-01
3.533009000000000015e+03,2.087734934455527380e-01,3.016188644295638710e-01
3.534938000000000102e+03,2.069876264500356555e-01,2.897486270448386136e-01
3.536865999999999985e+03,2.051963832305707669e-01,2.992658721282364098e-01
3.538795000000000073e+03,2.033979056510393235e-01,3.237633245446733810e-01
3.540722999999999956e+03,2.015940583849271661e-01,3.394525399375334374e-01
3.542652000000000044e+03,1.997829702213786973e-01,3.460641872809508968e-01
3.544579999999999927e+03,1.979665189086210475e-01,3.249663795070354411e-01
3.546509000000000015e+03,1.961428201610582178e-01,3.019764715444401837e-01
3.548436999999999898e+03,1.943137648016532992e-01,3.099760767640504788e-01
3.550365999999999985e+03,1.924774554700743323e-01,3.054703544087700173e-01
3.552294000000000324e+03,1.906357960640221449e-01,3.035962635818303390e-01
3.554222999999999956e+03,1.887868761484297053e-01,3.326036177937883309e-01
3.556150999999999840e+03,1.869326126957320255e-01,3.780161291495618414e-01
3.558079999999999927e+03,1.850710821961216723e-01,4.298599522866370926e-01
3.560007999999999811e+03,1.832042146967767238e-01,4.629029614448816332e-01
3.561936999999999898e+03,1.813300736131537860e-01,4.884360028080947380e-01
3.563864999999999782e+03,1.794506020671624569e-01,4.952567604677859947e-01
3.565794000000000324e+03,1.775638503995216055e-01,4.718126640459585630e-01
3.567722000000000207e+03,1.756717748068830076e-01,4.581045532453060787e-01
3.569650999999999840e+03,1.737724125552295718e-01,5.108315017038571604e-01
3.571579000000000178e+03,1.718677329159445932e-01,5.669104590691440571e-01
3.573507999999999811e+03,1.699557600802741320e-01,5.721644635916733890e-01
3.575435999999999694e+03,1.680384763943427728e-01,5.047788581816119446e-01
3.577364999999999782e+03,1.661138929746579507e-01,4.006372719834039309e-01
3.579292999999999665e+03,1.641840052420802110e-01,3.202847738818710432e-01
3.581222000000000207e+03,1.622468112383792516e-01,2.518202903459636488e-01
3.583150000000000091e+03,1.603043194591542431e-01,1.828392033740233735e-01
3.585079000000000178e+03,1.583545148714380346e-01,1.474758672348062127e-01
3.587007000000000062e+03,1.563994190455666455e-01,1.185167039740049333e-01
3.588935999999999694e+03,1.544370038738369644e-01,1.146655124355753230e-01
3.590864000000000033e+03,1.524693040013183065e-01,1.294962132400607757e-01
3.592792999999999665e+03,1.504942782455715999e-01,1.230015279054073041e-01
3.594720999999999549e+03,1.485139743264065615e-01,1.336444599699588842e-01
3.596650000000000091e+03,1.465263379866454940e-01,1.545416955641467638e-01
3.598577999999999975e+03,1.445334300208340750e-01,1.493733733342450520e-01
3.600507000000000062e+03,1.425331830970559821e-01,1.169039091676222775e-01
3.602434999999999945e+03,1.405276710845981825e-01,1.066810894000247423e-01
3.604364000000000033e+03,1.385148135768066169e-01,1.216799674110777829e-01
3.606291999999999916e+03,1.364966975177015485e-01,1.116580089128667019e-01
3.608220999999999549e+03,1.344712294258947338e-01,5.533305761977214132e-02
3.610149000000000342e+03,1.324405093201432848e-01,1.983162488302525617e-02
3.612077999999999975e+03,1.304024306443203329e-01,9.280700762948956850e-03
3.614005999999999858e+03,1.283591064919216151e-01,1.516465865253291412e-02
3.615934999999999945e+03,1.263084172320851906e-01,3.011189963650684476e-02
3.617862999999999829e+03,1.242524890330400922e-01,1.292365262586026020e-02
