wavenumber (/cm),baseline value (/cm),baseline-subtracted absorbance (/cm),
3.290019000000000233e+03,1.601391250579684566e-01,6.661338147750939243e-16
3.291947000000000116e+03,1.598429568356660724e-01,-7.044224419527234105e-03
3.293875000000000000e+03,1.595430100061729917e-01,-2.786169690822681844e-03
3.295804000000000087e+03,1.592391260551107024e-01,1.761028528287411632e-03
3.297731999999999971e+03,1.589316200513763988e-01,1.845161522282978694e-03
3.299660999999999603e+03,1.586201730053389269e-01,-4.790383631991801394e-04
3.301589000000000397e+03,1.583051078273634005e-01,-4.600516700450141272e-03
3.303518000000000029e+03,1.579860976863516342e-01,-5.875261390169583819e-03
3.305447000000000116e+03,1.576633050174152118e-01,-3.463274100735436178e-03
3.307375000000000000e+03,1.573369000981488242e-01,-3.504004751108791282e-03
3.309302999999999884e+03,1.570067165716908519e-01,-5.453153424372692015e-03
3.311231999999999971e+03,1.566725802407296086e-01,-2.797174459310491912e-03
3.313159999999999854e+03,1.563348375400304135e-01,1.315494814275064428e-03
3.315089000000000397e+03,1.559931381140948758e-01,3.267180327704677367e-03
3.317017000000000280e+03,1.556478362391544579e-01,7.422962957012058105e-03
3.318945999999999913e+03,1.552985737182437376e-01,4.853690928533382909e-03
3.320875000000000000e+03,1.549455286694083611e-01,5.089465199564768838e-04
3.322802999999999884e+03,1.545888870531779702e-01,7.481047539020790893e-04
3.324730999999999767e+03,1.542284668297551065e-01,3.911894895395784388e-03
3.326659999999999854e+03,1.538640781188957973e-01,3.601527075106414344e-03
3.328587999999999738e+03,1.534960987212317107e-01,6.590467981504533057e-03
3.330517000000000280e+03,1.531241469153963308e-01,1.198019687808038469e-02
3.332445000000000164e+03,1.527486083434919095e-01,1.572333476981779832e-02
3.334374000000000251e+03,1.523690934426822352e-01,1.455856152717427410e-02
3.336302000000000135e+03,1.519859956965365910e-01,1.434264860706535583e-02
3.338230999999999767e+03,1.515989177007526223e-01,1.334388644208284180e-02
3.340159000000000106e+03,1.512082607803648671e-01,1.604633807571842485e-02
3.342087999999999738e+03,1.508136196896074921e-01,1.684444183458500000e-02
3.344015999999999622e+03,1.504154035949785140e-01,1.028254044583165605e-02
3.345945000000000164e+03,1.500131994092450682e-01,3.622602105672445560e-03
3.347873000000000047e+03,1.496074241403757554e-01,7.123136997358336941e-03
3.349802000000000135e+03,1.491976568596680153e-01,1.256150220664842276e-02
3.351730000000000018e+03,1.487843224165574796e-01,1.508335419497464081e-02
3.353659000000000106e+03,1.483669920408745568e-01,2.069082214988149371e-02
3.355586999999999989e+03,1.479460984235227983e-01,2.400860864093867786e-02
3.357515999999999622e+03,1.475212049528655811e-01,1.694316357395475592e-02
3.359444000000000415e+03,1.470927521612717115e-01,1.430390883733734242e-02
3.361373000000000047e+03,1.466602955956401999e-01,1.721974768771139530e-02
3.363302000000000135e+03,1.462240565020831440e-01,1.630879246993754972e-02
3.365230000000000018e+03,1.457842639691993014e-01,1.489513006388176741e-02
3.367157999999999902e+03,1.453406928291238742e-01,1.634426620627582594e-02
3.369086999999999989e+03,1.448931100735419975e-01,1.140075296556786189e-02
3.371014999999999873e+03,1.444419797592262356e-01,7.699000299515645906e-03
3.372944000000000415e+03,1.439868339086700644e-01,1.044970960655677850e-02
3.374872000000000298e+03,1.435281444201121914e-01,1.328666466939176782e-02
3.376800999999999931e+03,1.430654354745817258e-01,8.091621257525494215e-03
3.378729000000000269e+03,1.425991868117826300e-01,8.146678082328051573e-03
3.380657999999999902e+03,1.421289147712769818e-01,7.980066524131856909e-03
3.382585999999999785e+03,1.416551069342366631e-01,8.175624245234880405e-03
3.384514999999999873e+03,1.411772717987567205e-01,8.186617519530647868e-03
3.386442999999999756e+03,1.406959047874760671e-01,8.288482289352083754e-03
3.388372000000000298e+03,1.402105065570209419e-01,1.173801717153066804e-02
3.390300000000000182e+03,1.397215803714981774e-01,8.846204448412331445e-03
3.392229000000000269e+03,1.392286190460687578e-01,-1.839532633949092499e-03
3.394157000000000153e+03,1.387321336863056587e-01,1.896247825520225305e-03
3.396085999999999785e+03,1.382316092659010565e-01,7.229049259373399039e-03
3.398014000000000124e+03,1.377275647318967344e-01,1.253213537631170382e-02
3.399942999999999756e+03,1.372194772165178378e-01,1.974836943675206680e-02
3.401870999999999640e+03,1.367078735082722929e-01,1.611172766656188138e-02
3.403800000000000182e+03,1.361922228979182137e-01,1.041776318957610137e-02
3.405728000000000065e+03,1.356730600154305577e-01,8.333741654070303539e-03
3.407657000000000153e+03,1.351498463101030723e-01,5.799295752039634877e-03
3.409585000000000036e+03,1.346231242533741934e-01,2.719587139422330324e-03
3.411514000000000124e+03,1.340923474530715254e-01,-1.638336013899843735e-03
3.413442000000000007e+03,1.335580662221023118e-01,-2.470572018979488860e-03
3.415370999999999640e+03,1.330197263268244612e-01,4.830018610569419835e-03
3.417299000000000433e+03,1.324778859216140248e-01,1.273698500124886834e-02
3.419228000000000065e+03,1.319319829313618797e-01,9.143144599941477324e-03
3.421155999999999949e+03,1.313825833519102204e-01,6.158767706986090218e-03
3.423085000000000036e+03,1.308291172666828928e-01,5.392091575487700794e-03
3.425012999999999920e+03,1.302721585129900106e-01,3.533684739444931111e-03
3.426942000000000007e+03,1.297111293327892767e-01,1.731906685142670099e-03
3.428869999999999891e+03,1.291466114048542835e-01,4.306008783737658163e-03
3.430799000000000433e+03,1.285780191296774788e-01,3.593104691624215974e-03
3.432727000000000317e+03,1.280059420275030391e-01,-2.866578697102717399e-05
3.434655999999999949e+03,1.274297866573519400e-01,-3.038072327470553446e-03
3.436584000000000287e+03,1.268501503809362774e-01,1.104711266922908663e-03
3.438512999999999920e+03,1.262664319158099957e-01,2.094984068113703302e-03
3.440440999999999804e+03,1.256792364651522220e-01,1.346451239652157739e-04
3.442369999999999891e+03,1.250879549050525341e-01,-3.462363283079916698e-05
3.444297999999999774e+03,1.244932002801535376e-01,1.666948119908528980e-03
3.446227000000000317e+03,1.238943556250777789e-01,3.018107066581343645e-04
3.448155000000000200e+03,1.232920418259384476e-01,6.431253892101640446e-03
3.450084000000000287e+03,1.226856340758883945e-01,1.298989537224914947e-02
3.452012000000000171e+03,1.220757611025078404e-01,6.432509109271844494e-03
3.453940999999999804e+03,1.214617902574826047e-01,-6.409524154664669737e-04
3.455869000000000142e+03,1.208443581098608277e-01,-6.843642931966265053e-04
3.457797999999999774e+03,1.202228241698621858e-01,3.715960804631768255e-03
3.459725999999999658e+03,1.195978328479982977e-01,1.277115772241477210e-02
3.461655000000000200e+03,1.189687358130235850e-01,9.027090435237417054e-03
3.463583000000000084e+03,1.183361853169202504e-01,2.592087986527102927e-03
3.465512000000000171e+03,1.176995251869712433e-01,8.647669124359991244e-03
3.467440000000000055e+03,1.170594155166257977e-01,1.388818071153941069e-02
3.469369000000000142e+03,1.164151922917024962e-01,1.482379364120856025e-02
3.471297000000000025e+03,1.157675234471149395e-01,2.138195869850290087e-02
3.473225999999999658e+03,1.151157371272182317e-01,2.248667437378659706e-02
3.475154000000000451e+03,1.144605091083894521e-01,2.143916626647524026e-02
3.477083000000000084e+03,1.138011596935166736e-01,2.590590476776033491e-02
3.479010999999999967e+03,1.131383725004475593e-01,2.193814628143564427e-02
3.480940000000000055e+03,1.124714599906004864e-01,1.735076910199540023e-02
3.482867999999999938e+03,1.118011136232901492e-01,2.366959282283764843e-02
3.484797000000000025e+03,1.111266380184678937e-01,2.655538393237488748e-02
3.486724999999999909e+03,1.104487324769172218e-01,2.603604105840529037e-02
3.488654000000000451e+03,1.097666937771197837e-01,3.378872437097135695e-02
3.490582000000000335e+03,1.090812290613270008e-01,3.707891933873486146e-02
3.492510999999999967e+03,1.083916272665561564e-01,3.582231615592035290e-02
3.494439000000000306e+03,1.076986033765221507e-01,3.395389314535157688e-02
3.496367999999999938e+03,1.070014384867761237e-01,2.965801428799608175e-02
3.498295999999999822e+03,1.063008554225017832e-01,3.435612401790644199e-02
3.500224999999999909e+03,1.055961274377805736e-01,3.821048873164301085e-02
3.502152999999999793e+03,1.048879851992650103e-01,3.571798171988804782e-02
3.504082000000000335e+03,1.041756941195686181e-01,3.809359015930025016e-02
3.506010000000000218e+03,1.034599927068109437e-01,4.681825740912692879e-02
3.507939000000000306e+03,1.027401385321420335e-01,5.145370904862800465e-02
3.509867000000000189e+03,1.020168779451431362e-01,4.871430152618172471e-02
3.511795999999999822e+03,1.012894606754981552e-01,5.299018069101935069e-02
3.513724000000000160e+03,1.005586409142589233e-01,6.468946543911913150e-02
3.515652999999999793e+03,9.982366054963875968e-02,7.063236047370347048e-02
3.517580999999999676e+03,9.908528161415830482e-02,7.365702786180416961e-02
3.519510000000000218e+03,9.834273815456384682e-02,7.580318857290579970e-02
3.521438000000000102e+03,9.759680004484216909e-02,8.007362815116969568e-02
3.523367000000000189e+03,9.684669349027341667e-02,7.549524498553439322e-02
3.525295000000000073e+03,9.609319620630962788e-02,7.787418669676682281e-02
3.527224000000000160e+03,9.533552655676658105e-02,8.027816953227340235e-02
3.529152000000000044e+03,9.457447009856245757e-02,8.886964800315355628e-02
3.531080999999999676e+03,9.380923735404422814e-02,8.873752412377322596e-02
3.533009000000000015e+03,9.304062172159888178e-02,8.349516433497894408e-02
3.534938000000000102e+03,9.226782588210546976e-02,8.033535853588813502e-02
3.536865999999999985e+03,9.149165107541978870e-02,7.510210375531156668e-02
3.538795000000000073e+03,9.071129214095119409e-02,7.709826111302942042e-02
3.540722999999999956e+03,8.992755816002340197e-02,8.344235991077586512e-02
3.542652000000000044e+03,8.913963613058051294e-02,7.866605253845659895e-02
3.544579999999999927e+03,8.834834297541238612e-02,6.463202493307451668e-02
3.546509000000000015e+03,8.755285785099520268e-02,5.666881474136853392e-02
3.548436999999999898e+03,8.675400552158585299e-02,6.197300019800011661e-02
3.550365999999999985e+03,8.595095730219348695e-02,6.394933640626221383e-02
3.552294000000000324e+03,8.514454579854291438e-02,6.376950583231222325e-02
3.554222999999999956e+03,8.433393448417625393e-02,7.764782467489017570e-02
3.556150999999999840e+03,8.351996380628357031e-02,9.075735880926771859e-02
3.558079999999999927e+03,8.270178939694261544e-02,9.450179693788496316e-02
3.560007999999999811e+03,8.188025954480870894e-02,1.036275469167775576e-01
3.561936999999999898e+03,8.105452204049257148e-02,1.172906626866678792e-01
3.563864999999999782e+03,8.022543301411833028e-02,1.180223641724640338e-01
3.565794000000000324e+03,7.939213241482789840e-02,9.871885846475203508e-02
3.567722000000000207e+03,7.855548421421243432e-02,9.888693347012855739e-02
3.569650999999999840e+03,7.771462051994681985e-02,1.399774493517490503e-01
3.571579000000000178e+03,7.687041314508924472e-02,1.602636106607541189e-01
3.573507999999999811e+03,7.602198635585022402e-02,1.573711192246106672e-01
3.575435999999999694e+03,7.517021980675142601e-02,1.456328409445241112e-01
3.577364999999999782e+03,7.431422992253722271e-02,1.176984459160779206e-01
3.579292999999999665e+03,7.345490419919809000e-02,9.112617479291840183e-02
3.581222000000000207e+03,7.259135122000870410e-02,7.576929184692615671e-02
3.583150000000000091e+03,7.172446632242834852e-02,6.515681362810510358e-02
3.585079000000000178e+03,7.085335024826378003e-02,5.020709186025396065e-02
3.587007000000000062e+03,6.997890617644220157e-02,2.354482237511179576e-02
3.588935999999999694e+03,6.910022700730422685e-02,2.946987656357236141e-02
3.590864000000000033e+03,6.821822376124053733e-02,4.839098940926533921e-02
3.592792999999999665e+03,6.733198149712738001e-02,4.325775416526256301e-02
3.594720999999999549e+03,6.644241907682424397e-02,3.624346745896178668e-02
3.596650000000000091e+03,6.554861371773501588e-02,4.067104929045783912e-02
3.598577999999999975e+03,6.465149212319065697e-02,4.231248994513547856e-02
3.600507000000000062e+03,6.375012366912802264e-02,3.594148245237471784e-02
3.602434999999999945e+03,6.284544290034155267e-02,3.931640591709562038e-02
3.604364000000000033e+03,6.193651135130462393e-02,4.114820035065891446e-02
3.606291999999999916e+03,6.102427140827693108e-02,3.210526947903202810e-02
3.608220999999999549e+03,6.010777676426481975e-02,1.205329913618369275e-02
3.610149000000000342e+03,5.918797764699590402e-02,1.027407212885811383e-02
3.612077999999999975e+03,5.826391990800861009e-02,1.254609709616549829e-02
3.614005999999999858e+03,5.733656161649935967e-02,1.033309366252388450e-02
3.615934999999999945e+03,5.640494078253777133e-02,1.336704870579130677e-02
3.617862999999999829e+03,5.547002331678729803e-02,3.939468103834276036e-03
