wavenumber (/cm),baseline value (/cm),baseline-subtracted absorbance (/cm),
3.290019000000000233e+03,3.516393569330737989e-01,-8.881784197001252323e-15
3.291947000000000116e+03,3.515152078654288914e-01,-3.957364038977573273e-02
3.293875000000000000e+03,3.513804215913971518e-01,-5.458416250962194738e-02
3.295804000000000087e+03,3.512349199238222752e-01,-1.370207095180120405e-02
3.297731999999999971e+03,3.510788537197946368e-01,2.525288225176325341e-02
3.299660999999999603e+03,3.509120610849141286e-01,7.504833578124703308e-04
3.301589000000000397e+03,3.507347149508888151e-01,1.450321376209373625e-03
3.303518000000000029e+03,3.505466313487044516e-01,1.405608931909618775e-02
3.305447000000000116e+03,3.503478995028235232e-01,3.245778916621322452e-02
3.307375000000000000e+03,3.501386307151932442e-01,3.672487214459962956e-02
3.309302999999999884e+03,3.499187247211761331e-01,3.467858552770231029e-02
3.311231999999999971e+03,3.496880591843822828e-01,8.574423424986044040e-03
3.313159999999999854e+03,3.494468732603674965e-01,-1.052509245962607309e-02
3.315089000000000397e+03,3.491949167562680145e-01,-4.186414669392846122e-03
3.317017000000000280e+03,3.489324509022608822e-01,2.329664169319478617e-02
3.318945999999999913e+03,3.486592034308539922e-01,4.881258509905794796e-02
3.320875000000000000e+03,3.483753077157558664e-01,3.583631695575562048e-02
3.322802999999999884e+03,3.480809192081384396e-01,4.952999437974270336e-02
3.324730999999999767e+03,3.477758934941359570e-01,6.116830189927835448e-02
3.326659999999999854e+03,3.474600640881213565e-01,3.407921690206094922e-03
3.328587999999999738e+03,3.471337584441211987e-01,-1.756659195780141403e-02
3.330517000000000280e+03,3.467966380708062957e-01,1.056075874477624410e-02
3.332445000000000164e+03,3.464490524968102392e-01,1.107838605628863604e-02
3.334374000000000251e+03,3.460906411561879281e-01,3.751347076219158083e-02
3.336302000000000135e+03,3.457217756521941965e-01,6.654905446065129127e-02
3.338230999999999767e+03,3.453420733442644774e-01,6.956672245106698682e-02
3.340159000000000106e+03,3.449519279102783997e-01,6.101885582754906778e-02
3.342087999999999738e+03,3.445509346350430491e-01,9.906477638878641301e-03
3.344015999999999622e+03,3.441395092710610726e-01,-3.316640678226878691e-02
3.345945000000000164e+03,3.437172250285236430e-01,-4.885016675058295732e-02
3.347873000000000047e+03,3.432845197345404387e-01,-9.811803704241839341e-03
3.349802000000000135e+03,3.428409445246991538e-01,1.321717883285256079e-02
3.351730000000000018e+03,3.423869593007200507e-01,5.516116908895085658e-03
3.353659000000000106e+03,3.419220931235749106e-01,3.564862878089325449e-02
3.355586999999999989e+03,3.414468279695999087e-01,3.495988094986302031e-02
3.357515999999999622e+03,3.409606708251491369e-01,5.122281966797181951e-02
3.359444000000000415e+03,3.404641257411746835e-01,5.361919471020915040e-02
3.361373000000000047e+03,3.399566776294218329e-01,4.737366709155566014e-02
3.363302000000000135e+03,3.394385812739724173e-01,3.890583053619867115e-02
3.365230000000000018e+03,3.389101135363929984e-01,-5.505414201101288540e-03
3.367157999999999902e+03,3.383710085924285238e-01,1.741350215111836519e-02
3.369086999999999989e+03,3.378209785460644099e-01,2.468404541436264310e-02
3.371014999999999873e+03,3.372605936721022601e-01,2.662872461511334166e-02
3.372944000000000415e+03,3.366892726584325146e-01,4.991839467809633391e-02
3.374872000000000298e+03,3.361076078544726897e-01,5.375713167250140145e-02
3.376800999999999931e+03,3.355149958735008653e-01,3.844929536162045025e-02
3.378729000000000269e+03,3.349120511395451416e-01,3.500370090868454298e-02
3.380657999999999902e+03,3.342981481912676855e-01,2.739299418004215170e-02
3.382585999999999785e+03,3.336739235273160631e-01,1.183929335319078291e-02
3.384514999999999873e+03,3.330387296117329754e-01,2.830802000572951727e-03
3.386442999999999756e+03,3.323932250177854542e-01,3.058173247178075371e-02
3.388372000000000298e+03,3.317367401348967348e-01,3.590509013253306847e-02
3.390300000000000182e+03,3.310699556109550912e-01,-2.489031202236091644e-03
3.392229000000000269e+03,3.303921797607607402e-01,-3.758880984269019621e-02
3.394157000000000153e+03,3.297041153068214214e-01,-1.354473982374937435e-02
3.396085999999999785e+03,3.290050484893232152e-01,7.938837737296644548e-03
3.398014000000000124e+03,3.282957041053879976e-01,2.142527286168682821e-02
3.399942999999999756e+03,3.275753463205841598e-01,1.362267501192437891e-02
3.401870999999999640e+03,3.268447220066494907e-01,4.002395012982162825e-03
3.403800000000000182e+03,3.261030732545453503e-01,2.892629759102582909e-02
3.405728000000000065e+03,3.253511690106147825e-01,1.821661580929578861e-02
3.407657000000000153e+03,3.245882292912050104e-01,-1.369937475418137041e-02
3.409585000000000036e+03,3.238150451172767674e-01,-2.084086054469835858e-02
3.411514000000000124e+03,3.230308144305613638e-01,-1.569660512464032820e-02
3.413442000000000007e+03,3.222363503266372220e-01,-1.346528833869342634e-02
3.415370999999999640e+03,3.214308286726161867e-01,-6.113159790253952508e-03
3.417299000000000433e+03,3.206150846386961462e-01,1.171062258034893944e-02
3.419228000000000065e+03,3.197882720173730320e-01,-4.024630032522402701e-03
3.421155999999999949e+03,3.189512480534553163e-01,1.895868966176550430e-03
3.423085000000000036e+03,3.181031444648265705e-01,2.656604706400411686e-02
3.425012999999999920e+03,3.172448405709129560e-01,8.044722930078318512e-02
3.426942000000000007e+03,3.163754460149803549e-01,1.071119554381043670e-01
3.428869999999999891e+03,3.154958621910690653e-01,7.457988367382561989e-02
3.430799000000000433e+03,3.146051766678308326e-01,3.716480323632787020e-02
3.432727000000000317e+03,3.137043129139236441e-01,3.041688046990742578e-02
3.434655999999999949e+03,3.127923364233815562e-01,3.902092683214419822e-02
3.436584000000000287e+03,3.118701927394766926e-01,1.677101919436196908e-02
3.438512999999999920e+03,3.109369252816307494e-01,-1.523569276066005784e-03
3.440440999999999804e+03,3.099935016677299870e-01,2.167317532011381331e-04
3.442369999999999891e+03,3.090389432425784122e-01,-3.037222504811154522e-02
3.444297999999999774e+03,3.080742396986817511e-01,-3.902956509673405350e-02
3.446227000000000317e+03,3.070983903062245446e-01,2.209159268960103617e-02
3.448155000000000200e+03,3.061124068323319847e-01,8.002455405806951916e-02
3.450084000000000287e+03,3.051152664725691466e-01,6.771902012505037760e-02
3.452012000000000171e+03,3.041080030686806879e-01,4.953475469913470874e-02
3.453940999999999804e+03,3.030895717416157709e-01,3.370977900811400474e-02
3.455869000000000142e+03,3.020610284077278607e-01,4.593634367451038258e-02
3.457797999999999774e+03,3.010213061133590884e-01,8.233469945164273440e-02
3.459725999999999658e+03,2.999714828494752794e-01,9.107195508528942440e-02
3.461655000000000200e+03,2.989104695877990991e-01,7.501131121294335458e-02
3.463583000000000084e+03,2.978393663939229441e-01,7.001578896239202265e-02
3.465512000000000171e+03,2.967570621649393559e-01,7.462182174292930625e-02
3.467440000000000055e+03,2.956646790410673020e-01,1.050541337584389723e-01
3.469369000000000142e+03,2.945610838447798585e-01,1.073773919629186224e-01
3.471297000000000025e+03,2.934474207909101295e-01,5.625655200241208576e-02
3.473225999999999658e+03,2.923225346273188308e-01,6.963062660316499120e-02
3.475154000000000451e+03,2.911875916434514266e-01,1.046950795576622184e-01
3.477083000000000084e+03,2.900414145125580490e-01,1.327511345676706256e-01
3.479010999999999967e+03,2.888851915986929697e-01,1.536236969466777680e-01
3.480940000000000055e+03,2.877177235004939604e-01,1.225659370343654686e-01
3.482867999999999938e+03,2.865402206566329824e-01,1.100659008459183852e-01
3.484797000000000025e+03,2.853514615911301178e-01,1.339181318545330512e-01
3.486724999999999909e+03,2.841526788172714646e-01,1.495990602459533747e-01
3.488654000000000451e+03,2.829426287844629684e-01,1.365457001690080219e-01
3.490582000000000335e+03,2.817225660806066401e-01,1.128685608323625189e-01
3.492510999999999967e+03,2.804912250804960649e-01,1.420764051560174934e-01
3.494439000000000306e+03,2.792498824466438379e-01,1.753056902848442178e-01
3.496367999999999938e+03,2.779972504792276311e-01,1.644853588885268891e-01
3.498295999999999822e+03,2.767346279153795052e-01,1.587793618821171648e-01
3.500224999999999909e+03,2.754607049806576669e-01,1.452070952975930140e-01
3.502152999999999793e+03,2.741768024868136422e-01,1.055016640458816823e-01
3.504082000000000335e+03,2.728815885847861722e-01,1.245863353601830426e-01
3.506010000000000218e+03,2.715764061609444724e-01,1.517216306299049577e-01
3.507939000000000306e+03,2.702599012916131471e-01,1.506745553477433219e-01
3.509867000000000189e+03,2.689334389377755485e-01,1.549265085038689094e-01
3.511795999999999822e+03,2.675956431011403680e-01,1.943598368803094445e-01
3.513724000000000160e+03,2.662479008173050943e-01,2.187204095861572384e-01
3.515652999999999793e+03,2.648888140133660585e-01,2.392030085248935123e-01
3.517580999999999676e+03,2.635197917995348860e-01,2.537440820604119907e-01
3.519510000000000218e+03,2.621394140282902185e-01,2.555603850132923682e-01
3.521438000000000102e+03,2.607491118844613709e-01,2.477004166361762572e-01
3.523367000000000189e+03,2.593474431459128482e-01,2.574781867814328606e-01
3.525295000000000073e+03,2.579358610720881018e-01,2.764017490685821699e-01
3.527224000000000160e+03,2.565129013662339474e-01,2.660485455343692962e-01
3.529152000000000044e+03,2.550800393624133022e-01,2.626112575922947556e-01
3.531080999999999676e+03,2.536357886892570690e-01,2.642441000106980908e-01
3.533009000000000015e+03,2.521816467554387486e-01,2.817277673734830401e-01
3.534938000000000102e+03,2.507161051149751074e-01,2.677597025832785249e-01
3.536865999999999985e+03,2.492406832511644410e-01,2.614472128687932440e-01
3.538795000000000073e+03,2.477538506433933918e-01,2.949830484136493070e-01
3.540722999999999956e+03,2.462571488495868266e-01,2.942808013745592532e-01
3.542652000000000044e+03,2.447490252745101458e-01,2.893636660224450097e-01
3.544579999999999927e+03,2.432310435507076818e-01,2.563523541923737881e-01
3.546509000000000015e+03,2.417016290083271457e-01,2.502221613765849284e-01
3.548436999999999898e+03,2.401623673545270066e-01,2.753894953754150166e-01
3.550365999999999985e+03,2.386116618448443916e-01,2.400805626102497925e-01
3.552294000000000324e+03,2.370511202610430246e-01,2.406046225121833970e-01
3.554222999999999956e+03,2.354791237840583307e-01,2.872871461185537711e-01
3.556150999999999840e+03,2.338973022702610649e-01,3.212178623610579820e-01
3.558079999999999927e+03,2.323040148259707394e-01,3.851167611826857851e-01
3.560007999999999811e+03,2.307009133821775748e-01,4.088113759979430384e-01
3.561936999999999898e+03,2.290863349705816177e-01,3.762591589233741374e-01
3.563864999999999782e+03,2.274619535967925543e-01,3.661792583370457876e-01
3.565794000000000324e+03,2.258260842178909655e-01,3.755775330336161844e-01
3.567722000000000207e+03,2.241804229141042271e-01,3.720686109396602603e-01
3.569650999999999840e+03,2.225232625679005594e-01,3.978191396581003403e-01
3.571579000000000178e+03,2.208563213341161457e-01,4.930353157040663348e-01
3.573507999999999811e+03,2.191778700206086228e-01,5.116576532441934333e-01
3.575435999999999694e+03,2.174896488568300867e-01,4.445608999142320883e-01
3.577364999999999782e+03,2.157899065760151558e-01,3.752813563703449873e-01
3.579292999999999665e+03,2.140804054822389446e-01,3.204658922453846870e-01
3.581222000000000207e+03,2.123593722341183820e-01,2.602252621761467211e-01
3.583150000000000091e+03,2.106285912103462721e-01,1.714072721379302777e-01
3.585079000000000178e+03,2.088862669949236306e-01,1.523179376734944412e-01
3.587007000000000062e+03,2.071342060411538455e-01,1.208507993692649052e-01
3.588935999999999694e+03,2.053705908584273487e-01,1.046533695682230203e-01
3.590864000000000033e+03,2.035972499746616649e-01,1.529547673386781881e-01
3.592792999999999665e+03,2.018123438246295365e-01,1.516078138504353134e-01
3.594720999999999549e+03,2.000177230108679538e-01,1.361486087251027044e-01
3.596650000000000091e+03,1.982115258935284174e-01,1.336156498677958382e-01
3.598577999999999975e+03,1.963956251497709360e-01,1.258203278568759131e-01
3.600507000000000062e+03,1.945681370651275444e-01,1.075419263140666715e-01
3.602434999999999945e+03,1.927309563913741641e-01,1.438272442578769628e-01
3.604364000000000033e+03,1.908821773394269172e-01,1.226647387217880691e-01
3.606291999999999916e+03,1.890237167356758619e-01,2.922253461692925214e-02
3.608220999999999549e+03,1.871536467164247597e-01,-1.835244096592170138e-02
3.610149000000000342e+03,1.852739061826778055e-01,3.676504883355313780e-02
3.612077999999999975e+03,1.833825451961192954e-01,9.725897590451548780e-02
3.614005999999999858e+03,1.814815247323782188e-01,7.354398152824881407e-02
3.615934999999999945e+03,1.795688727785140770e-01,8.859014066439740986e-03
3.617862999999999829e+03,1.776465723847771017e-01,2.208909000508185727e-02
