wavenumber (/cm),baseline value (/cm),baseline-subtracted absorbance (/cm),
3.290019000000000233e+03,2.559066316277665010e-01,-1.776356839400250465e-15
3.291947000000000116e+03,2.560047252233363935e-01,4.614983042579012817e-04
3.293875000000000000e+03,2.560920838400857491e-01,2.906646527272016556e-04
3.295804000000000087e+03,2.561687444351505860e-01,-5.172454436695339552e-03
3.297731999999999971e+03,2.562346275263216455e-01,-1.137066091633442966e-02
3.299660999999999603e+03,2.562898014570524907e-01,-1.312006888633021617e-02
3.301589000000000397e+03,2.563342090226452541e-01,-1.833760985739463223e-02
3.303518000000000029e+03,2.563678962890403312e-01,-2.602626698002730166e-02
3.305447000000000116e+03,2.563908374378573996e-01,-1.550893915373219301e-02
3.307375000000000000e+03,2.564030289311176602e-01,-4.446776032677846047e-03
3.309302999999999884e+03,2.564044854455520550e-01,-2.153442007616135356e-03
3.311231999999999971e+03,2.563951993832791487e-01,-2.589356130843434300e-03
3.313159999999999854e+03,2.563751803721388001e-01,-8.772768871133429514e-03
3.315089000000000397e+03,2.563444076455283493e-01,-1.272174571941864230e-02
3.317017000000000280e+03,2.563029131088114809e-01,-1.099065464536863601e-02
3.318945999999999913e+03,2.562506537178617094e-01,-1.378504852385908919e-02
3.320875000000000000e+03,2.561876482093392582e-01,-2.166608382535351041e-02
3.322802999999999884e+03,2.561139376002863344e-01,-2.158928154834516278e-02
3.324730999999999767e+03,2.560294920124146500e-01,-2.145691510717284700e-02
3.326659999999999854e+03,2.559342592927968951e-01,-2.055784871929144941e-02
3.328587999999999738e+03,2.558283381793486910e-01,-1.086852986276110045e-02
3.330517000000000280e+03,2.557116187953933917e-01,-9.433214096056907749e-03
3.332445000000000164e+03,2.555842221563668915e-01,-9.808213499694851123e-03
3.334374000000000251e+03,2.554460161080776004e-01,-7.080735539210181173e-03
3.336302000000000135e+03,2.552971439434745804e-01,-8.822418329003767212e-03
3.338230999999999767e+03,2.551374512308495213e-01,-1.228075004055639852e-02
3.340159000000000106e+03,2.549671035406682051e-01,-1.952422210613313780e-02
3.342087999999999738e+03,2.547859241637073779e-01,-2.392953214020998587e-02
3.344015999999999622e+03,2.545941009479495420e-01,-1.969767182443593612e-02
3.345945000000000164e+03,2.543914349066529468e-01,-9.149511889184225311e-03
3.347873000000000047e+03,2.541781361653168148e-01,-4.235332022481053116e-03
3.349802000000000135e+03,2.539539834596844514e-01,-7.629976658013681856e-03
3.351730000000000018e+03,2.537192091927717996e-01,-2.566789962595628083e-03
3.353659000000000106e+03,2.534735698228036682e-01,9.101789583596975319e-03
3.355586999999999989e+03,2.532173200303144966e-01,1.079102747316529332e-02
3.357515999999999622e+03,2.529501939960123735e-01,6.766145469129014600e-03
3.359444000000000415e+03,2.526724686779413531e-01,4.344844662607982855e-03
3.361373000000000047e+03,2.523838559793034619e-01,6.382568506707819722e-03
3.363302000000000135e+03,2.520844971630857856e-01,4.432738885762788072e-03
3.365230000000000018e+03,2.517745557726840389e-01,-4.072656196445478827e-04
3.367157999999999902e+03,2.514538794034617553e-01,-7.103129673982522263e-03
3.369086999999999989e+03,2.511222933761523279e-01,-8.439498508320042447e-03
3.371014999999999873e+03,2.507801414813481955e-01,4.925531729349508225e-03
3.372944000000000415e+03,2.504270687897047765e-01,-2.745819755849865373e-03
3.374872000000000298e+03,2.500634413693276770e-01,-1.212944848016217492e-02
3.376800999999999931e+03,2.496888820133467135e-01,-1.639470980744128781e-02
3.378729000000000269e+03,2.493037790673913179e-01,-2.054508375126662401e-02
3.380657999999999902e+03,2.489077330470728100e-01,-2.321442650819438569e-02
3.382585999999999785e+03,2.485011545755391182e-01,-2.068078048371546629e-02
3.384514999999999873e+03,2.480836218908866186e-01,-2.316709692566742973e-02
3.386442999999999756e+03,2.476555678937764071e-01,-2.641194445893280118e-02
3.388372000000000298e+03,2.472165485447916922e-01,-3.093118759255641947e-02
3.390300000000000182e+03,2.467670190221014082e-01,-3.500785995578414855e-02
3.392229000000000269e+03,2.463065130087773724e-01,-2.576237944872072916e-02
3.394157000000000153e+03,2.458355079605123450e-01,-2.076053501260766154e-02
3.396085999999999785e+03,2.453535152828543175e-01,-1.921191689052115237e-02
3.398014000000000124e+03,2.448610347090109940e-01,-1.547859538299434234e-02
3.399942999999999756e+03,2.443575553670171985e-01,-1.768573592042432807e-02
3.401870999999999640e+03,2.438435992675973552e-01,-2.914890147813942178e-02
3.403800000000000182e+03,2.433186332612660152e-01,-3.323824989443924238e-02
3.405728000000000065e+03,2.427832016362696521e-01,-3.423937724300873953e-02
3.407657000000000153e+03,2.422367489656043205e-01,-2.740215320118810638e-02
3.409585000000000036e+03,2.416798418150278849e-01,-2.172930850230514466e-02
3.411514000000000124e+03,2.411119024800267852e-01,-1.568061480032234556e-02
3.413442000000000007e+03,2.405335198038756062e-01,-5.832638678508139662e-03
3.415370999999999640e+03,2.399440938045387384e-01,-9.417737335222220452e-03
3.417299000000000433e+03,2.393442356028074869e-01,-9.370514780423278012e-03
3.419228000000000065e+03,2.387333229391366274e-01,-4.342381526243777046e-03
3.421155999999999949e+03,2.381119892118288561e-01,-3.957560397481962866e-03
3.423085000000000036e+03,2.374795898838204522e-01,-4.467532378796157388e-03
3.425012999999999920e+03,2.368367806309361612e-01,-3.249672886307841679e-03
3.426942000000000007e+03,2.361828946385937655e-01,-3.430537241777997792e-03
3.428869999999999891e+03,2.355186098601311784e-01,-3.806598730125898555e-03
3.430799000000000433e+03,2.348432372034512383e-01,-6.094589808181005708e-03
3.432727000000000317e+03,2.341574768994103550e-01,1.480179616279997390e-03
3.434655999999999949e+03,2.334606175783981996e-01,-8.473852395507464053e-04
3.436584000000000287e+03,2.327533817487790202e-01,-7.183741928095344065e-03
3.438512999999999920e+03,2.320350357634275440e-01,-5.632964345896773750e-03
3.440440999999999804e+03,2.313063244082318448e-01,1.676282892493219379e-04
3.442369999999999891e+03,2.305664917585481533e-01,4.319116527122801585e-03
3.444297999999999774e+03,2.298163048777741579e-01,4.137938436494792427e-03
3.446227000000000317e+03,2.290549855637564747e-01,6.062497818528633786e-03
3.448155000000000200e+03,2.282833231574024069e-01,1.086646815501079999e-02
3.450084000000000287e+03,2.275005171790507319e-01,1.245388071861608381e-02
3.452012000000000171e+03,2.267073792471201443e-01,1.329571242083460447e-02
3.453940999999999804e+03,2.259030866044291486e-01,1.533203474353861395e-02
3.455869000000000142e+03,2.250884731469220412e-01,2.606394608325413031e-02
3.457797999999999774e+03,2.242626938398970537e-01,2.077286034158376538e-02
3.459725999999999658e+03,2.234266048568134266e-01,1.545498426051672425e-02
3.461655000000000200e+03,2.225793388854491184e-01,1.889925131396452684e-02
3.463583000000000084e+03,2.217217743767907479e-01,2.598111633274768906e-02
3.465512000000000171e+03,2.208530217410924479e-01,3.443604921268939023e-02
3.467440000000000055e+03,2.199739817068540049e-01,4.348482181764889987e-02
3.469369000000000142e+03,2.190837424068199368e-01,3.787869382752973024e-02
3.471297000000000025e+03,2.181832268470049740e-01,4.020678706550206982e-02
3.473225999999999658e+03,2.172715008826369143e-01,5.217740930441028269e-02
3.475154000000000451e+03,2.163495097972418790e-01,5.920080709872443947e-02
3.477083000000000084e+03,2.154162971685380512e-01,6.685376002732024148e-02
3.479010999999999967e+03,2.144728305575682725e-01,7.687745542171864344e-02
3.480940000000000055e+03,2.135181312645286766e-01,8.971575341625825928e-02
3.482867999999999938e+03,2.125531891279806018e-01,9.310997364833806245e-02
3.484797000000000025e+03,2.115770031706034615e-01,8.690885244850399260e-02
3.486724999999999909e+03,2.105905855084788669e-01,8.678381548085578601e-02
3.488654000000000451e+03,2.095929128867659585e-01,8.680683977979786192e-02
3.490582000000000335e+03,2.085850196990648442e-01,8.667081582420088637e-02
3.492510999999999967e+03,2.075658604130179441e-01,9.152750795921971161e-02
3.494439000000000306e+03,2.065364916997367573e-01,9.520643610981682770e-02
3.496367999999999938e+03,2.054958457493558655e-01,9.248297632515356526e-02
3.498295999999999822e+03,2.044450015104963825e-01,9.325634336506460897e-02
3.500224999999999909e+03,2.033828688957779462e-01,9.586585579119155653e-02
3.502152999999999793e+03,2.023105491313419435e-01,1.039686284849832276e-01
3.504082000000000335e+03,2.012269298522912919e-01,1.084291220877320328e-01
3.506010000000000218e+03,2.001331345622752167e-01,1.150770988586558019e-01
3.507939000000000306e+03,1.990280286188887970e-01,1.199517209560072573e-01
3.509867000000000189e+03,1.979127578032962020e-01,1.354370644257976153e-01
3.511795999999999822e+03,1.967861651955722380e-01,1.572878802519461772e-01
3.513724000000000160e+03,1.956494188544048995e-01,1.677143158804854650e-01
3.515652999999999793e+03,1.945013395823451674e-01,1.810319731398681853e-01
3.517580999999999676e+03,1.933431177155995329e-01,2.140390124436217789e-01
3.519510000000000218e+03,1.921735517792022563e-01,2.412381038089890239e-01
3.521438000000000102e+03,1.909938543868801020e-01,2.473327803325515717e-01
3.523367000000000189e+03,1.898028017861488337e-01,2.482015265489883049e-01
3.525295000000000073e+03,1.886016288682501596e-01,2.492890806695475803e-01
3.527224000000000160e+03,1.873890896031831232e-01,2.468982809332214146e-01
3.529152000000000044e+03,1.861664411597061530e-01,2.270558497662484854e-01
3.531080999999999676e+03,1.849324152303033486e-01,2.123160002898698551e-01
3.533009000000000015e+03,1.836882912612480823e-01,2.203540645897348327e-01
3.534938000000000102e+03,1.824327786675095098e-01,2.251023890554773033e-01
3.536865999999999985e+03,1.811671791728777237e-01,2.364004510636359413e-01
3.538795000000000073e+03,1.798901799148033831e-01,2.347859678669266259e-01
3.540722999999999956e+03,1.786031048945950772e-01,2.425052580672240055e-01
3.542652000000000044e+03,1.773046189721849686e-01,2.587782377290057667e-01
3.544579999999999927e+03,1.759960684263983666e-01,2.601068841164995149e-01
3.546509000000000015e+03,1.746760958396524899e-01,2.546050913608430832e-01
3.548436999999999898e+03,1.733460697682893681e-01,2.449001815843159235e-01
3.550365999999999985e+03,1.720046105172077233e-01,2.444554296744758659e-01
3.552294000000000324e+03,1.706531089202663054e-01,2.486528116238684305e-01
3.554222999999999956e+03,1.692901630048506689e-01,2.529914879458390331e-01
3.556150999999999840e+03,1.679171858823274022e-01,2.801652070686708740e-01
3.558079999999999927e+03,1.665327533025795503e-01,3.227020588785931565e-01
3.560007999999999811e+03,1.651383006544797638e-01,3.603865099808585271e-01
3.561936999999999898e+03,1.637323814103925912e-01,3.695471053727272803e-01
3.563864999999999782e+03,1.623164532367180612e-01,3.571610548789108108e-01
3.565794000000000324e+03,1.608890473282968969e-01,3.352262718864205127e-01
3.567722000000000207e+03,1.594516436290422945e-01,3.375293426130356877e-01
3.569650999999999840e+03,1.580027510562853621e-01,3.899915293579985232e-01
3.571579000000000178e+03,1.565438718314542399e-01,4.346966599354331606e-01
3.573507999999999811e+03,1.550734925943615394e-01,4.299442844963792254e-01
3.575435999999999694e+03,1.535931378439556738e-01,3.847041260299057797e-01
3.577364999999999782e+03,1.521012719425254289e-01,3.116767462983167647e-01
3.579292999999999665e+03,1.505994416665412672e-01,2.361311194711932515e-01
3.581222000000000207e+03,1.490860891007752542e-01,1.865384278261075224e-01
3.583150000000000091e+03,1.475627832992145727e-01,1.495874717633931539e-01
3.585079000000000178e+03,1.460279440691145680e-01,1.178474617123050905e-01
3.587007000000000062e+03,1.444831627419755904e-01,8.300176537674541777e-02
3.588935999999999694e+03,1.429268368475398177e-01,6.252300083989315027e-02
3.590864000000000033e+03,1.413605799948225439e-01,7.924074942239833774e-02
3.592792999999999665e+03,1.397827674360510031e-01,8.652500810885577209e-02
3.594720999999999549e+03,1.381950350577572095e-01,7.219219635359053200e-02
3.596650000000000091e+03,1.365957358346499007e-01,7.634212163945797158e-02
3.598577999999999975e+03,1.349865279307778110e-01,9.538910972573866331e-02
3.600507000000000062e+03,1.333657420433347340e-01,9.525305529783079095e-02
3.602434999999999945e+03,1.317350586138861246e-01,8.218517635287803103e-02
3.604364000000000033e+03,1.300927860621072796e-01,7.038487663692016838e-02
3.606291999999999916e+03,1.284406271070821504e-01,6.095572472473076431e-02
3.608220999999999549e+03,1.267768678909693136e-01,4.407024912866308597e-02
3.610149000000000342e+03,1.251032334103623356e-01,2.608396708430493760e-02
3.612077999999999975e+03,1.234179875299137308e-01,1.558804122259882519e-02
3.614005999999999858e+03,1.217228775237302330e-01,1.648009047750687017e-02
3.615934999999999945e+03,1.200161449789476364e-01,1.948764231429755966e-02
3.617862999999999829e+03,1.182995594471858425e-01,1.082472560459990518e-02
