baseline wavenumber (cm-1),baseline absorbance (cm-1),baseline-subtracted absorbance (cm-1)
3149.238,0.150902143523,-2.6645352591e-15
3151.167,0.149239625159,0.0058722108148
3153.095,0.147587197801,-0.00113333014031
3155.023,0.145943997201,-0.00696450046275
3156.952,0.144309178256,-0.0185561493648
3158.881,0.142683595642,-0.0267171464344
3160.809,0.141068084887,-0.0147158015691
3162.738,0.139460970148,0.00230883413855
3164.666,0.137863917694,0.00798510374083
3166.594,0.136276091998,-0.00301234549301
3168.523,0.134696676678,-0.00675911843048
3170.452,0.13312649769,-0.0129242609708
3172.38,0.131566361839,-0.0190183655667
3174.309,0.130014650726,-0.0208468967649
3176.237,0.128472973176,-0.0196425910694
3178.166,0.126939729938,-0.00974588091633
3180.094,0.125416510689,0.00521070273139
3182.022,0.123902518198,0.0113621602737
3183.951,0.122396974379,0.00887143195873
3185.88,0.120900666891,-0.00141231647162
3187.808,0.119414364245,-0.00856627477601
3189.737,0.117936524632,-0.00421518260059
3191.665,0.116468680287,-0.0126550735772
3193.594,0.11500930855,-0.0163876869284
3195.522,0.113559922506,-0.0021396056378
3197.45,0.112119763221,0.00119430947275
3199.379,0.110688090902,-0.015483058283
3201.308,0.109265654915,-0.0276375095279
3203.236,0.107853185474,-0.00344591613544
3205.165,0.106449217362,-0.0125312304092
3207.093,0.105055206222,-0.039175429894
3209.021,0.10367042184,-0.030161568159
3210.95,0.102294153147,-0.0170872565951
3212.878,0.100927827066,-0.0245485167215
3214.807,0.099570026248,-0.0268570719144
3216.736,0.0982214617613,-0.030971694753
3218.664,0.0968828255256,-0.0351502998966
3220.593,0.0955527289141,-0.0260345555683
3222.521,0.0942325509797,-0.00992407008501
3224.449,0.0929215998031,-0.00324499216101
3226.378,0.0916192026102,-0.0113694356018
3228.306,0.0903267097349,-0.00568365288499
3230.235,0.0890427804171,4.48244291018e-05
3232.164,0.0877680874309,-0.00249129339553
3234.092,0.0865032844005,0.00379214896391
3236.021,0.0852470592894,0.00442675245335
3237.949,0.0840007145603,-0.000837620431677
3239.877,0.082763596589,-0.000759868723177
3241.806,0.0815350708965,0.00970910431317
3243.734,0.0803164112265,0.00138535950973
3245.663,0.0791063534092,-0.0189320756832
3247.592,0.0779055319235,-0.0251031088107
3249.52,0.0767145620983,-0.0117639563201
3251.448,0.0755328190309,0.0062686721154
3253.377,0.0743596969638,0.022644030902
3255.305,0.0731964121978,0.0280990211666
3257.234,0.0720417580058,0.0261213361228
3259.162,0.0708969315411,0.00383745802092
3261.091,0.0697607452242,-0.00439634634257
3263.02,0.068633795239,0.0130521320676
3264.948,0.067516658619,0.0160639564788
3266.876,0.0664087487569,-0.0043248717765
3268.805,0.0653094981903,-0.00211658113534
3270.733,0.0642200466295,0.0163885274618
3272.662,0.063139263938,0.0177684713835
3274.591,0.0620677175782,0.00726872230998
3276.519,0.0610059558622,0.00378807955255
3278.448,0.0599528773774,0.014130999603
3280.376,0.0589095739628,0.0351183850307
3282.304,0.0578754973059,0.0346445399728
3284.233,0.0568501182398,0.00856367486368
3286.161,0.0558344998842,-0.0217413032393
3288.09,0.0548275886932,-0.0199366287678
3290.019,0.0538299138338,-0.00183923349834
3291.947,0.0528419853231,0.0115280053572
3293.875,0.0518632835702,0.0204386735594
3295.804,0.0508933081294,0.0232511466702
3297.732,0.0499330646778,0.0157016044741
3299.661,0.0489815571122,0.0158078184703
3301.589,0.0480397719619,0.00581204537271
3303.518,0.0471067322713,-0.0018140948063
3305.447,0.0461829289125,0.0182504354864
3307.375,0.045268833607,0.0174245494312
3309.303,0.0443639650593,0.0234496416509
3311.232,0.043467861119,0.0352255219192
3313.16,0.0425814508727,0.0319311306744
3315.089,0.0417038148075,0.014662448007
3317.017,0.0408358628625,-0.00827854692584
3318.946,0.0399766946724,0.0155563901365
3320.875,0.039126762814,0.0332124729735
3322.803,0.0382865007138,0.0276473296683
3324.731,0.0374554653714,0.015858607322
3326.66,0.0366332329316,0.014814110964
3328.588,0.0358206558905,0.0252650850229
3330.517,0.0350168913258,0.0164146091402
3332.445,0.034222772586,0.0127846831456
3334.374,0.0334374758965,0.0177405296953
3336.302,0.032661815458,0.0169663299288
3338.231,0.0318949866436,0.0105132146612
3340.159,0.0311377845064,0.00480816143954
3342.088,0.0303894235671,0.0289721794152
3344.016,0.0296506797312,0.0360128803806
3345.945,0.0289207866671,0.0260111797821
3347.873,0.0282005011325,0.00807629290289
3349.802,0.0274890759435,-0.00404173204784
3351.73,0.0267872487102,0.0208828351667
3353.659,0.0260942913963,0.0494033786876
3355.587,0.0254109224644,0.057490289092
3357.516,0.0247364330256,0.0725972109633
3359.444,0.024071522395,0.0661726528147
3361.373,0.0234155008313,0.0558184227475
3363.302,0.0227687155992,0.0359181436739
3365.23,0.0221314948134,0.0148358863609
3367.158,0.0215035007854,0.00881243584085
3369.087,0.020884414972,0.00676143777733
3371.015,0.0202748792453,-6.51867942416e-05
3372.944,0.019674261307,0.00886721120001
3374.872,0.0190831838816,0.0345142066123
3376.801,0.0185010338184,0.0491233837026
3378.729,0.0179284146944,0.0442160401052
3380.658,0.0173647325063,0.0378076812868
3382.586,0.0168105716836,0.0176227927153
3384.515,0.0162653573706,0.0250673546518
3386.443,0.0157296548492,0.0389814355515
3388.372,0.0152029084113,0.0456992351115
3390.3,0.0146856641913,0.0346442519318
3392.229,0.0141773856285,0.0347471250891
3394.157,0.0136785997097,0.0478759203275
3396.086,0.0131887890221,0.0472622827393
3398.014,0.0127084614047,0.0370203363586
3399.943,0.0122371185922,0.0332130212028
3401.871,0.011775249276,0.0265826258405
3403.8,0.0113223743387,0.0274791168076
3405.728,0.0108789633238,0.0256951280089
3407.657,0.0104445562616,0.0502656021727
3409.585,0.0100196035481,0.0836653917921
3411.514,0.00960366436094,0.0758073328432
3413.442,0.00919716994873,0.0464160639749
3415.371,0.00879969863672,0.0457632090986
3417.299,0.00841166252582,0.0540645723297
3419.228,0.00803265908894,0.0620083474348
3421.156,0.00766308127935,0.0623369187206
3423.085,0.0073025457176,0.0446173051678
3425.013,0.00695142620932,0.0242023482548
3426.942,0.00660935852268,0.036406484907
3428.87,0.00627669731572,0.058031783579
3430.799,0.00595309750421,0.0703395399608
3432.727,0.00563889459856,0.0539603598283
3434.656,0.00533376266216,0.0596121832838
3436.584,0.00503801805783,0.0656348617185
3438.513,0.00475135399656,0.0465478072336
3440.441,0.00447406769354,0.0263395390166
3442.37,0.00420587150738,0.0239246037955
3444.298,0.00394704350568,0.0291303097096
3446.227,0.00369731519465,0.0417407090365
3448.155,0.00345694549425,0.0569400722131
3450.084,0.00322568505834,0.0738395525931
3452.012,0.00300377365926,0.0633708768533
3453.941,0.00279098109847,0.065384228594
3455.869,0.00258752800071,0.0891766844876
3457.798,0.00239320331504,0.0799534882041
3459.726,0.00220820851859,0.0811832173901
3461.655,0.00203235170804,0.0897244050487
3463.583,0.0018658152129,0.0582413609288
3465.512,0.00170842627747,0.0620287591839
3467.44,0.00156034808364,0.07489538351
3469.369,0.00142142702333,0.104140548746
3471.297,0.00129180713082,0.117157400698
3473.226,0.00117135394564,0.104009447546
3475.154,0.00106019235444,0.0793862195747
3477.083,0.000958207044375,0.078328838622
3479.011,0.00086550375449,0.0965762483424
3480.94,0.000781986319549,0.115340101285
3482.868,0.000707741330977,0.108771289424
3484.797,0.000642691771153,0.107765509534
3486.725,0.000586905083896,0.1001968787
3488.654,0.000540323399195,0.114987169611
3490.582,0.00050299501325,0.143791506385
3492.511,0.000474881203669,0.132867150483
3494.439,0.00045601111904,0.12647875123
3496.368,0.000446365184578,0.131598369205
3498.296,0.000445953401259,0.123848547997
3500.225,0.000454775341924,0.124577843484
3502.153,0.000472821859919,0.114824475437
3504.082,0.000500111675702,0.110343317961
3506.01,0.00053661649501,0.128025359274
3507.939,0.000582374185914,0.14480718779
3509.867,0.000637337306536,0.129630137064
3511.796,0.000701562872562,0.117729005627
3513.724,0.000774984294498,0.130927718408
3515.653,0.000857677735642,0.156019302693
3517.581,0.00094955745889,0.181866845151
3519.51,0.00105071877516,0.187236326891
3521.438,0.00116105679972,0.171278831364
3523.367,0.00128068599111,0.176499369927
3525.295,0.00140948231699,0.186856128121
3527.224,0.00154757938349,0.192470127979
3529.152,0.00169483401068,0.185622034582
3531.081,0.00185139895232,0.172380660694
3533.009,0.00201711188082,0.157812338259
3534.938,0.00219214469757,0.151713726691
3536.866,0.00237631592739,0.133002994417
3538.795,0.00256981661926,0.131638943865
3540.723,0.00277244615039,0.132923732787
3542.652,0.00298441471738,0.143209434304
3544.58,0.00320550254983,0.152452465763
3546.509,0.00343593899194,0.137669373217
3548.437,0.00367548512569,0.138941476664
3550.366,0.00392438944293,0.138058835161
3552.294,0.004182393878,0.113833449552
3554.223,0.00444976607036,0.113939795905
3556.151,0.00472622880674,0.135084582004
3558.08,0.00501206887422,0.15602614175
3560.008,0.00530698991192,0.165503820899
3561.937,0.00561129785452,0.173729801866
3563.865,0.00592467719352,0.202695080495
3565.794,0.00624745301125,0.225554970102
3567.722,0.00657929065157,0.241402070019
3569.651,0.00692053434441,0.261569680008
3571.579,0.00727083028604,0.280139234952
3573.508,0.00763054185401,0.287282785266
3575.436,0.00799929609696,0.239681971377
3577.365,0.00837747554004,0.180812645616
3579.293,0.00876468808431,0.151014435867
3581.222,0.00916133540251,0.144686754066
3583.15,0.00956700624809,0.137321157778
3585.079,0.00998212144141,0.112675846872
3587.007,0.0104062505883,0.098276880819
3588.936,0.0108398336568,0.0839122632678
3590.864,0.011282421105,0.0673466562483
3592.793,0.0117344720485,0.069897401204
3594.721,0.012195517798,0.0667140814564
3596.65,0.0126660366167,0.0643432830478
3598.578,0.0131455406676,0.0684621014573
3600.507,0.0136345273614,0.0693785201689
3602.435,0.0141324897135,0.0445021794384
3604.364,0.0146399442824,0.0385855915983
3606.292,0.0151563649359,0.0692434486708
3608.221,0.01568228738,0.0692683183982
3610.149,0.0162171663347,0.0139086491359
3612.078,0.0167615566539,-0.0167615566539
3614.006,0.01731489391,-0.00600641301529
3615.935,0.0178777521043,0.0349917725928
3617.863,0.0184495476617,0.0359754290392
3619.792,0.0190308737311,0.00418347855223
3621.72,0.0196211275898,-0.000312646695112
3623.649,0.0202209215343,0.0174482303762
3625.577,0.0208296336944,0.00465592082568
3627.506,0.021447895514,0.012597770842
3629.434,0.0220750659754,0.0387972546211
3631.363,0.0227117956701,0.00852492380796
3633.291,0.0233574244328,0.00705357277131
3635.22,0.0240126220027,0.0147292232909
3637.148,0.0246767090666,0.0120651362269
3639.077,0.0253503745117,0.0201174726458
3641.005,0.0260329198769,0.0371646570103
3642.934,0.0267250531971,0.0442171648831
3644.862,0.0274260568637,0.0128684445343
3646.791,0.0281366580589,0.0109900893781
3648.719,0.0288561200268,0.0364337215389
3650.648,0.0295851890972,0.021143608666
3652.576,0.0303231093665,0.00780457003709
3654.505,0.031070646312,0.00503559786325
3656.433,0.0318270248825,0.0091897505136
3658.362,0.0325930297031,0.00177696097722
3660.29,0.033367866575,-0.00774997281913
3662.219,0.0341523392707,-0.000869953436598
3664.147,0.0349456344439,4.50458916434e-05
3666.076,0.0357485750147,0.00116847997129
3668.004,0.0365603284892,0.00467545902244
3669.933,0.0373817369352,0.0256592695886
3671.861,0.038211948711,0.0294814343272
3673.79,0.0390518250321,0.0259714741291
3675.718,0.0399004951092,-0.00662649697312
3677.647,0.0407588393054,-0.0167690909364
3679.575,0.0416259676838,-0.0162308139094
3681.504,0.0425027797552,-0.00878236968995
3683.432,0.0433883664349,0.00295552918485
3685.361,0.0442836463814,0.00094654933157
3687.289,0.0451876913624,0.0134441818901
3689.218,0.046101439184,0.0289190640779
3691.146,0.0470239424664,0.00290056825124
3693.075,0.0479561581631,-0.00590117214258
3695.003,0.0488971197467,-0.00815620641963
3696.932,0.0498478033186,-0.00379654516388
3698.86,0.0508072232036,-0.00475596504886
