wavenumber (/cm),baseline value (/cm),baseline-subtracted absorbance (/cm),
3.290019000000000233e+03,2.249622816509493362e-01,1.443289932012703503e-15
3.291947000000000116e+03,2.248954586751139573e-01,9.672712676903616469e-04
3.293875000000000000e+03,2.248216832929585962e-01,2.137042939843958322e-03
3.295804000000000087e+03,2.247409118292829078e-01,-2.554948001798007517e-03
3.297731999999999971e+03,2.246532280284760930e-01,-8.213129095101523447e-03
3.299660999999999603e+03,2.245585409322359283e-01,-5.922584833920607750e-03
3.301589000000000397e+03,2.244569487127723306e-01,-1.875251387065013375e-03
3.303518000000000029e+03,2.243483459839676897e-01,-1.525498557781279629e-03
3.305447000000000116e+03,2.242327836349353731e-01,-3.269574483598325365e-03
3.307375000000000000e+03,2.241103269844817447e-01,-3.085284474047322867e-03
3.309302999999999884e+03,2.239809179277099105e-01,-3.809948689806108568e-03
3.311231999999999971e+03,2.238444839337763170e-01,-3.557577147565216258e-03
3.313159999999999854e+03,2.237011664583494763e-01,2.122668389142878809e-04
3.315089000000000397e+03,2.235508168318514066e-01,-2.454665958455337638e-03
3.317017000000000280e+03,2.233935909377713358e-01,-5.730737328249135842e-03
3.318945999999999913e+03,2.232293256787087898e-01,-2.385918660622654563e-03
3.320875000000000000e+03,2.230581007994185683e-01,2.825497902080975621e-03
3.322802999999999884e+03,2.228800104743449140e-01,6.645573077981636878e-03
3.324730999999999767e+03,2.226949677429583829e-01,7.032347143423045566e-03
3.326659999999999854e+03,2.225028712187651081e-01,4.926561460165235218e-03
3.328587999999999738e+03,2.223039200687217942e-01,3.896574598150959190e-03
3.330517000000000280e+03,2.220979079119658195e-01,6.361823112922215806e-03
3.332445000000000164e+03,2.218850483432674991e-01,7.227797537084912349e-03
3.334374000000000251e+03,2.216651205539452718e-01,7.243675241386360319e-03
3.336302000000000135e+03,2.214383525665937213e-01,5.123867250997893308e-03
3.338230999999999767e+03,2.212045091447087941e-01,3.876028805515185915e-03
3.340159000000000106e+03,2.209638327387004608e-01,3.146694390685822462e-03
3.342087999999999738e+03,2.207160736842510573e-01,2.869642809797401384e-03
3.344015999999999622e+03,2.204614888595912703e-01,3.023748425924233096e-03
3.345945000000000164e+03,2.201998141725756142e-01,4.191281823714421151e-03
3.347873000000000047e+03,2.199313209292590443e-01,7.040544892351729978e-03
3.349802000000000135e+03,2.196557306096806883e-01,1.349792528767590483e-02
3.351730000000000018e+03,2.193733289477108883e-01,1.992810867788807894e-02
3.353659000000000106e+03,2.190838229955662797e-01,2.292127825655920770e-02
3.355586999999999989e+03,2.187875129149432496e-01,2.605264785179028930e-02
3.357515999999999622e+03,2.184840913302359411e-01,2.348777449137495754e-02
3.359444000000000415e+03,2.181738728309561282e-01,2.116543772708989746e-02
3.361373000000000047e+03,2.178565356136825670e-01,1.970815753827304118e-02
3.363302000000000135e+03,2.175322387761831067e-01,2.204667604836485495e-02
3.365230000000000018e+03,2.172011558459132630e-01,2.215284013491836124e-02
3.367157999999999902e+03,2.168631205093234371e-01,1.637478333980313394e-02
3.369086999999999989e+03,2.165179520269244762e-01,1.052579507463680120e-02
3.371014999999999873e+03,2.161660082716814202e-01,4.236836062836979444e-03
3.372944000000000415e+03,2.158069241567144303e-01,-2.085947189640724453e-03
3.374872000000000298e+03,2.154410719828181442e-01,-6.562419950046582962e-03
3.376800999999999931e+03,2.150680722352884544e-01,-5.991553453405629170e-03
3.378729000000000269e+03,2.146883116427353855e-01,-2.523216573945941121e-03
3.380657999999999902e+03,2.143013962626412194e-01,-4.163662455252126193e-03
3.382585999999999785e+03,2.139077272514366967e-01,-6.489115410348467172e-03
3.384514999999999873e+03,2.135068962387762781e-01,-8.733979250060919242e-03
3.386442999999999756e+03,2.130993188089149726e-01,-4.430900197073928126e-03
3.388372000000000298e+03,2.126845721636918540e-01,-4.805301797329186719e-03
3.390300000000000182e+03,2.122630863151773184e-01,-1.010417458229750931e-02
3.392229000000000269e+03,2.118344240373879472e-01,-1.377815568060958284e-02
3.394157000000000153e+03,2.113990297702201815e-01,-1.200561502296404459e-02
3.396085999999999785e+03,2.109564518598663341e-01,-1.073601593468465065e-02
3.398014000000000124e+03,2.105071491740435619e-01,-1.013985902100611458e-02
3.399942999999999756e+03,2.100506556311252382e-01,-1.329366073237747692e-02
3.401870999999999640e+03,2.095874445266474595e-01,-1.759316411236389044e-02
3.403800000000000182e+03,2.091170353511646596e-01,-1.676875895604956757e-02
3.405728000000000065e+03,2.086399158280318744e-01,-1.293254219995942922e-02
3.407657000000000153e+03,2.081555910199863746e-01,-1.328992399262507451e-02
3.409585000000000036e+03,2.076645630782003593e-01,-1.698114987677812326e-02
3.411514000000000124e+03,2.071663226375886069e-01,-1.695207004831678077e-02
3.413442000000000007e+03,2.066613862771475851e-01,-1.282910926369884574e-02
3.415370999999999640e+03,2.061492302039713564e-01,-9.441701992501272400e-03
3.417299000000000433e+03,2.056303854248753282e-01,-4.878182611457559936e-03
3.419228000000000065e+03,2.051043137191346233e-01,-5.254105031547662286e-03
3.421155999999999949e+03,2.045715605213853650e-01,-6.345250427089554890e-03
3.423085000000000036e+03,2.040315731830801838e-01,-3.055997359923678935e-03
3.425012999999999920e+03,2.034849115666759189e-01,-3.181160805111327150e-04
3.426942000000000007e+03,2.029310085958080379e-01,-4.389696407918197707e-04
3.428869999999999891e+03,2.023704385607487666e-01,-9.968104884037209956e-04
3.430799000000000433e+03,2.018026199573146329e-01,-4.227105967517075236e-03
3.432727000000000317e+03,2.012281415036021315e-01,-4.537617465883769796e-03
3.434655999999999949e+03,2.006464072676035215e-01,-4.131335386323597980e-03
3.436584000000000287e+03,2.000580203952360137e-01,-6.778379028718695132e-03
3.438512999999999920e+03,1.994623705266711511e-01,-4.543372227088560145e-03
3.440440999999999804e+03,1.988600752356504131e-01,1.383789303721627562e-04
3.442369999999999891e+03,1.982505097345228506e-01,-1.742394106141298415e-03
3.444297999999999774e+03,1.976343060248453298e-01,8.733458533429772075e-04
3.446227000000000317e+03,1.970108248911550675e-01,1.959804263273690061e-03
3.448155000000000200e+03,1.963807127628243165e-01,-1.287035223791921368e-03
3.450084000000000287e+03,1.957433159965660252e-01,1.292701935108109268e-03
3.452012000000000171e+03,1.950992954495820442e-01,7.634666522902122665e-03
3.453940999999999804e+03,1.944479830507610529e-01,8.778327043534761565e-03
3.455869000000000142e+03,1.937900540851202891e-01,5.491287698772051584e-03
3.457797999999999774e+03,1.931248260537348216e-01,7.944272725056378270e-03
3.459725999999999658e+03,1.924529886694426040e-01,1.491306481641296866e-02
3.461655000000000200e+03,1.917738450054908839e-01,1.724084041729467831e-02
3.463583000000000084e+03,1.910880992025418834e-01,2.202381917742401995e-02
3.465512000000000171e+03,1.903950399060292398e-01,2.856631424453492940e-02
3.467440000000000055e+03,1.896953856844252329e-01,3.761192611028796318e-02
3.469369000000000142e+03,1.889884107553463366e-01,4.370535953372456373e-02
3.471297000000000025e+03,1.882748481150890996e-01,4.696413781782160513e-02
3.473225999999999658e+03,1.875539575534457271e-01,5.417753108467449064e-02
3.475154000000000451e+03,1.868264864945334836e-01,6.330583689393465274e-02
3.477083000000000084e+03,1.860916803003238584e-01,6.953530996092216476e-02
3.479010999999999967e+03,1.853503008227601612e-01,7.619491482107965119e-02
3.480940000000000055e+03,1.846015789959860598e-01,7.975860032075532402e-02
3.482867999999999938e+03,1.838462910997655797e-01,8.396728132255626420e-02
3.484797000000000025e+03,1.830836536404287784e-01,8.523231482455817520e-02
3.486724999999999909e+03,1.823144573255532919e-01,8.769960976364110650e-02
3.488654000000000451e+03,1.815379042336502380e-01,8.711969354034887481e-02
3.490582000000000335e+03,1.807547995001232977e-01,9.063428691199582055e-02
3.492510999999999967e+03,1.799643307756557675e-01,9.683903914241498434e-02
3.494439000000000306e+03,1.791673176234720444e-01,9.875832776221349363e-02
3.496367999999999938e+03,1.783629332664400380e-01,9.635742536704250405e-02
3.498295999999999822e+03,1.775520116956030847e-01,9.934178951014738246e-02
3.500224999999999909e+03,1.767337117060066021e-01,1.059600585830642316e-01
3.502152999999999793e+03,1.759088817165146423e-01,1.145186959616426581e-01
3.504082000000000335e+03,1.750766660943554598e-01,1.236852754731201376e-01
3.506010000000000218e+03,1.742379276862067172e-01,1.310335207602304486e-01
3.507939000000000306e+03,1.733917964314830584e-01,1.378017419824912881e-01
3.509867000000000189e+03,1.725391496046828621e-01,1.522113527913599995e-01
3.511795999999999822e+03,1.716791027173929507e-01,1.683310997868581183e-01
3.513724000000000160e+03,1.708125474719359715e-01,1.807604931834976281e-01
3.515652999999999793e+03,1.699385849520833602e-01,1.985999836056535628e-01
3.517580999999999676e+03,1.690581212879731510e-01,2.210231895792398316e-01
3.519510000000000218e+03,1.681702431355542871e-01,2.414349508666100430e-01
3.521438000000000102e+03,1.672758710527890713e-01,2.541279007821157787e-01
3.523367000000000189e+03,1.663740772678075075e-01,2.619086557666647774e-01
3.525295000000000073e+03,1.654657967663872853e-01,2.652469872806062501e-01
3.527224000000000160e+03,1.645500873488412452e-01,2.588934124192838748e-01
3.529152000000000044e+03,1.636278984287677929e-01,2.490967885398518433e-01
3.531080999999999676e+03,1.626982733786555002e-01,2.419138768764070857e-01
3.533009000000000015e+03,1.617621760399270414e-01,2.371234322457429489e-01
3.534938000000000102e+03,1.608186353572502725e-01,2.265729243892331546e-01
3.536865999999999985e+03,1.598686295998685836e-01,2.293570621608362892e-01
3.538795000000000073e+03,1.589111732846291147e-01,2.403987664278459668e-01
3.540722999999999956e+03,1.579472591085906430e-01,2.579633916875139210e-01
3.542652000000000044e+03,1.569758871607866979e-01,2.664784334451801850e-01
3.544579999999999927e+03,1.559980645660949961e-01,2.711283846532588360e-01
3.546509000000000015e+03,1.550127769857247984e-01,2.704750882175523952e-01
3.548436999999999898e+03,1.540210459723798664e-01,2.604110146243121537e-01
3.550365999999999985e+03,1.530218427594451924e-01,2.459395113911189146e-01
3.552294000000000324e+03,1.520162033274452540e-01,2.414497110333524432e-01
3.554222999999999956e+03,1.510030844819461038e-01,2.569519317493107469e-01
3.556150999999999840e+03,1.499835366312929352e-01,2.888000466118667564e-01
3.558079999999999927e+03,1.489565021532293088e-01,3.270886361989118196e-01
3.560007999999999811e+03,1.479230458839193574e-01,3.652429766852567372e-01
3.561936999999999898e+03,1.468820957732930310e-01,3.758827828787396630e-01
3.563864999999999782e+03,1.458347310853280732e-01,3.670623163717749993e-01
3.565794000000000324e+03,1.447798653421354942e-01,3.505449143765229092e-01
3.567722000000000207e+03,1.437185922355190826e-01,3.600263451582048635e-01
3.569650999999999840e+03,1.426498108597620273e-01,4.028867481138043161e-01
3.571579000000000178e+03,1.415746293344888329e-01,4.320118600765483485e-01
3.573507999999999811e+03,1.404919323261673014e-01,4.227281944322187623e-01
3.575435999999999694e+03,1.394028423822408769e-01,3.768223856282708617e-01
3.577364999999999782e+03,1.383062297413548691e-01,3.056922244246675913e-01
3.579292999999999665e+03,1.372032313787734381e-01,2.370696083182430858e-01
3.581222000000000207e+03,1.360927031053247305e-01,1.830719282132715620e-01
3.583150000000000091e+03,1.349757963240882930e-01,1.456048189178347219e-01
3.585079000000000178e+03,1.338513524180733327e-01,1.141392179946643104e-01
3.587007000000000062e+03,1.327205372181836651e-01,7.455276622902617945e-02
3.588935999999999694e+03,1.315821776796042286e-01,5.328271643076820663e-02
3.590864000000000033e+03,1.304374540610577782e-01,5.811811867043081836e-02
3.592792999999999665e+03,1.292851788899138654e-01,6.107129042528158802e-02
3.594720999999999549e+03,1.281265468527159612e-01,6.096774901990720252e-02
3.596650000000000091e+03,1.269603560490075722e-01,6.788212346869226810e-02
3.598577999999999975e+03,1.257878155931528852e-01,7.200952557240580809e-02
3.600507000000000062e+03,1.246077091568817963e-01,6.652399589799540269e-02
3.602434999999999945e+03,1.234212602823738791e-01,6.640653381254024712e-02
3.604364000000000033e+03,1.222272382135365376e-01,6.495640686298220778e-02
3.606291999999999916e+03,1.210268809203736140e-01,5.612662039358529142e-02
3.608220999999999549e+03,1.198189432189717962e-01,3.574157618124451652e-02
3.610149000000000342e+03,1.186046775071538661e-01,1.328912369859669429e-02
3.612077999999999975e+03,1.173828241731875721e-01,5.667816391482505267e-04
3.614005999999999858e+03,1.161546500427181883e-01,4.653202793887145639e-03
3.615934999999999945e+03,1.149188810761874180e-01,9.272029420025251767e-03
3.617862999999999829e+03,1.136767985270612513e-01,2.761754572335850533e-03
