wavenumber (/cm),baseline value (/cm),baseline-subtracted absorbance (/cm),
3.290019000000000233e+03,6.728061509786158467e-01,-5.018208071305707563e-14
3.291947000000000116e+03,6.729678171147241983e-01,-2.429140507081761768e-03
3.293875000000000000e+03,6.730989071218687059e-01,7.864610048793352348e-04
3.295804000000000087e+03,6.731994652001986879e-01,5.824546506869587859e-04
3.297731999999999971e+03,6.732693870904284950e-01,-2.542453260045984820e-03
3.299660999999999603e+03,6.733087453256345611e-01,-4.615878233042991496e-04
3.301589000000000397e+03,6.733174990989425623e-01,2.885669586985439850e-03
3.303518000000000029e+03,6.732956574910318182e-01,2.504901688838101492e-03
3.305447000000000116e+03,6.732432080279551201e-01,1.314107908671813263e-03
3.307375000000000000e+03,6.731602016963904589e-01,-1.272683729750845316e-02
3.309302999999999884e+03,6.730466192358690591e-01,-1.647252790315656412e-02
3.311231999999999971e+03,6.729023779417175888e-01,-1.098345902279840303e-02
3.313159999999999854e+03,6.727276273642743831e-01,-1.193452391599825191e-02
3.315089000000000397e+03,6.725221862270061024e-01,-1.006831856624135213e-02
3.317017000000000280e+03,6.722862675326410908e-01,-5.840787569919125843e-03
3.318945999999999913e+03,6.720196265522488943e-01,-4.903130746097161818e-03
3.320875000000000000e+03,6.717223777166978493e-01,-5.429740251646109073e-03
3.322802999999999884e+03,6.713946989174601754e-01,-5.303366205437143321e-03
3.324730999999999767e+03,6.710364439892586574e-01,-7.316033924020359791e-03
3.326659999999999854e+03,6.706474033226328402e-01,-1.122708645403980299e-02
3.328587999999999738e+03,6.702279802775166218e-01,-1.168743973697550231e-02
3.330517000000000280e+03,6.697777397677668887e-01,-1.392499046674133822e-02
3.332445000000000164e+03,6.692971486057288644e-01,-1.565875158802132461e-02
3.334374000000000251e+03,6.687857082528694264e-01,-2.282857870953236556e-02
3.336302000000000135e+03,6.682439489739167016e-01,-2.550862744549098338e-02
3.338230999999999767e+03,6.676713087779191369e-01,-1.757345230075157971e-02
3.340159000000000106e+03,6.670683813820588171e-01,-1.104881008662506048e-02
3.342087999999999738e+03,6.664345413429444420e-01,-1.637769138954237036e-02
3.344015999999999622e+03,6.657704458301552108e-01,-1.354118208364951670e-02
3.345945000000000164e+03,6.650754059479311309e-01,-1.081929713075080457e-03
3.347873000000000047e+03,6.643501423182271992e-01,1.358152183171590366e-03
3.349802000000000135e+03,6.635939025928792034e-01,-6.231367644137009165e-03
3.351730000000000018e+03,6.628074708462534659e-01,-1.052322107924430483e-02
3.353659000000000106e+03,6.619900312777886597e-01,-1.480736585374353709e-02
3.355586999999999989e+03,6.611424314142482217e-01,-1.933441650278444612e-02
3.357515999999999622e+03,6.602637920026594998e-01,-1.441011073518438934e-02
3.359444000000000415e+03,6.593550240222043612e-01,-7.106188980265493171e-03
3.361373000000000047e+03,6.584151847674917235e-01,-1.637324627727698712e-02
3.363302000000000135e+03,6.574447376576202373e-01,-1.826393616647337126e-02
3.365230000000000018e+03,6.564442095722924364e-01,-2.032491786679324619e-02
3.367157999999999902e+03,6.554131053579936861e-01,-2.217358998054663743e-02
3.369086999999999989e+03,6.543508664170474276e-01,-1.862020472086811651e-02
3.371014999999999873e+03,6.532585940858339768e-01,-1.378888299543268303e-02
3.372944000000000415e+03,6.521351553017709080e-01,-1.231782072581522058e-02
3.374872000000000298e+03,6.509817148536356513e-01,-1.600408204841619053e-02
3.376800999999999931e+03,6.497970762264557720e-01,-2.069549188349162350e-02
3.378729000000000269e+03,6.485824676614058149e-01,-2.642030549924312410e-02
3.380657999999999902e+03,6.473366291911020198e-01,-3.581006814729903454e-02
3.382585999999999785e+03,6.460608525091302567e-01,-3.309813116709836578e-02
3.384514999999999873e+03,6.447538141957096514e-01,-3.353107421434842195e-02
3.386442999999999756e+03,6.434168693968231878e-01,-3.718201385162211992e-02
3.388372000000000298e+03,6.420486312402786666e-01,-3.980911586283175652e-02
3.390300000000000182e+03,6.406505183244703971e-01,-3.998136641393879032e-02
3.392229000000000269e+03,6.392210803248161710e-01,-4.244475227262523020e-02
3.394157000000000153e+03,6.377617992920932011e-01,-3.373104439926910558e-02
3.396085999999999785e+03,6.362711614493079537e-01,-3.178374299637143352e-02
3.398014000000000124e+03,6.347507122996702833e-01,-2.656897884207420901e-02
3.399942999999999756e+03,6.331988746137682256e-01,-1.222869754014244137e-02
3.401870999999999640e+03,6.316172573472087493e-01,-1.616432165289305445e-02
3.403800000000000182e+03,6.300042198181898812e-01,-2.339098589461041655e-02
3.405728000000000065e+03,6.283614344347157044e-01,-2.611819119147185120e-02
3.407657000000000153e+03,6.266871970625658150e-01,-2.648496034308722713e-02
3.409585000000000036e+03,6.249832435621769378e-01,-2.135789407475785495e-02
3.411514000000000124e+03,6.232478063469173435e-01,-1.839132918009500628e-02
3.413442000000000007e+03,6.214826847296066603e-01,-2.306143589456421950e-02
3.415370999999999640e+03,6.196860476712231502e-01,-1.775501318846384180e-02
3.417299000000000433e+03,6.178597579369977666e-01,-1.184764237315727442e-02
3.419228000000000065e+03,6.160019210354903407e-01,-2.347256409233988705e-02
3.421155999999999949e+03,6.141144631843431512e-01,-3.301101490848079578e-02
3.423085000000000036e+03,6.121954264397260204e-01,-2.060735561027549068e-02
3.425012999999999920e+03,6.102468004716641303e-01,-6.602811655261220380e-03
3.426942000000000007e+03,6.082665638839230837e-01,-7.032640305171256045e-03
3.428869999999999891e+03,6.062567697989393878e-01,-6.320143517484666518e-03
3.430799000000000433e+03,6.042153333680744254e-01,-2.237700562854882946e-03
3.432727000000000317e+03,6.021443711661760290e-01,4.678555208474932670e-03
3.434655999999999949e+03,6.000417348922013616e-01,5.006727363157992272e-03
3.436584000000000287e+03,5.979096045733811593e-01,5.122082285892393116e-03
3.438512999999999920e+03,5.957457684562754707e-01,5.167558663948579323e-03
3.440440999999999804e+03,5.935524700205476734e-01,5.043799328543485672e-04
3.442369999999999891e+03,5.913274340603251744e-01,-9.184843193595693123e-03
3.444297999999999774e+03,5.890729675076684657e-01,7.797817933572481763e-04
3.446227000000000317e+03,5.867867317043362618e-01,-1.466091623369258912e-02
3.448155000000000200e+03,5.844710970347648527e-01,-1.422039805992758588e-02
3.450084000000000287e+03,5.821236613883016275e-01,1.381576079250024236e-02
3.452012000000000171e+03,5.797468586018084125e-01,2.672751232083925288e-02
3.453940999999999804e+03,5.773382231122354824e-01,3.285189804340316044e-02
3.455869000000000142e+03,5.749002522088275668e-01,3.578194723199334959e-02
3.457797999999999774e+03,5.724304168761236156e-01,3.283892142769806455e-02
3.459725999999999658e+03,5.699312778558009995e-01,3.195222633804872814e-02
3.461655000000000200e+03,5.674002426799802379e-01,2.879453830790490443e-02
3.463583000000000084e+03,5.648399355427358159e-01,3.350768794281933083e-02
3.465512000000000171e+03,5.622477005238053493e-01,4.057149798504910976e-02
3.467440000000000055e+03,5.596262252696391215e-01,4.087144481423798936e-02
3.469369000000000142e+03,5.569727904075847391e-01,5.184361220192190700e-02
3.471297000000000025e+03,5.542901470365038108e-01,6.654116703619017414e-02
3.473225999999999658e+03,5.515755123313255126e-01,6.866213911322294194e-02
3.475154000000000451e+03,5.488317008433298838e-01,6.774518638873017196e-02
3.477083000000000084e+03,5.460558662950347752e-01,7.462633314578592802e-02
3.479010999999999967e+03,5.432508866901244460e-01,7.202590734529090710e-02
3.480940000000000055e+03,5.404138522987054216e-01,5.787039746830302533e-02
3.482867999999999938e+03,5.375477045768661810e-01,6.010001210533388871e-02
3.484797000000000025e+03,5.346494703423374517e-01,7.556301800808196134e-02
3.486724999999999909e+03,5.317221545035835106e-01,7.352481660545739928e-02
3.488654000000000451e+03,5.287627204259237601e-01,7.422982384248300036e-02
3.490582000000000335e+03,5.257742364702551185e-01,9.431616427531874791e-02
3.492510999999999967e+03,5.227536025494856631e-01,9.928740397428015285e-02
3.494439000000000306e+03,5.197039504768952156e-01,8.342559285954509463e-02
3.496367999999999938e+03,5.166221167130018443e-01,7.391749186108986791e-02
3.498295999999999822e+03,5.135112965234966964e-01,8.352411820157357170e-02
3.500224999999999909e+03,5.103682629164794093e-01,7.793928601175936777e-02
3.502152999999999793e+03,5.071962746100595609e-01,4.570493694632471460e-02
3.504082000000000335e+03,5.039920411599254635e-01,4.562678456234880997e-02
3.506010000000000218e+03,5.007588847365838092e-01,9.377792793816031036e-02
3.507939000000000306e+03,4.974934514433257959e-01,1.036649828530400441e-01
3.509867000000000189e+03,4.941991269030765466e-01,9.096303525908577825e-02
3.511795999999999822e+03,4.908724937667017230e-01,1.100054186284524782e-01
3.513724000000000160e+03,4.875170011095235623e-01,1.336908274086501258e-01
3.515652999999999793e+03,4.841291681300319283e-01,1.528400769771445233e-01
3.517580999999999676e+03,4.807125073559319617e-01,1.540228141724937494e-01
3.519510000000000218e+03,4.772634745333164119e-01,1.575501321768424390e-01
3.521438000000000102e+03,4.737856456423088503e-01,1.464436181041968155e-01
3.523367000000000189e+03,4.702754129765764901e-01,1.232408964362847748e-01
3.525295000000000073e+03,4.667364159686471226e-01,1.324052429316329160e-01
3.527224000000000160e+03,4.631649834597908466e-01,1.180465729241797490e-01
3.529152000000000044e+03,4.595648183349467786e-01,1.203065702950629756e-01
3.531080999999999676e+03,4.559321859829736923e-01,1.517928839145104014e-01
3.533009000000000015e+03,4.522708527412078183e-01,1.691047297378238667e-01
3.534938000000000102e+03,4.485770205461179216e-01,1.596699505629226579e-01
3.536865999999999985e+03,4.448545191874302418e-01,1.529767948852636117e-01
3.538795000000000073e+03,4.410994871492164293e-01,1.722714354975689588e-01
3.540722999999999956e+03,4.373158176736140490e-01,1.803132596796017673e-01
3.542652000000000044e+03,4.334995857922905316e-01,1.485069379728543026e-01
3.544579999999999927e+03,4.296547481997663454e-01,8.718402160452098926e-02
3.546509000000000015e+03,4.257773164753189121e-01,7.204654186578096642e-02
3.548436999999999898e+03,4.218713107658800254e-01,1.126179716199544600e-01
3.550365999999999985e+03,4.179326791983086764e-01,1.332294829638542843e-01
3.552294000000000324e+03,4.139655053719479838e-01,1.164016894090402765e-01
3.554222999999999956e+03,4.099656739612669298e-01,1.478115860573727680e-01
3.556150999999999840e+03,4.059373320179915368e-01,1.823776726418411265e-01
3.558079999999999927e+03,4.018763007641794616e-01,1.964042211370324864e-01
3.560007999999999811e+03,3.977867907039893680e-01,1.952057535644171615e-01
3.561936999999999898e+03,3.936645596070604824e-01,1.909421505513742012e-01
3.563864999999999782e+03,3.895138814299485830e-01,1.562177122326802170e-01
3.565794000000000324e+03,3.853304504899028871e-01,5.522686544672383846e-02
3.567722000000000207e+03,3.811186041958762871e-01,6.403889813404006759e-02
3.569650999999999840e+03,3.768739734127066754e-01,2.294820377708908232e-01
3.571579000000000178e+03,3.726009590017582696e-01,3.103365992461455392e-01
3.573507999999999811e+03,3.682951283754718474e-01,3.156582733020683040e-01
3.575435999999999694e+03,3.639609458476087411e-01,2.805702750284404523e-01
3.577364999999999782e+03,3.595939153782055087e-01,2.445691787504067349e-01
3.579292999999999665e+03,3.551985647334205964e-01,2.100288350801866599e-01
3.581222000000000207e+03,3.507703344208934482e-01,1.893489572846052127e-01
3.583150000000000091e+03,3.463138156591867300e-01,1.631614872299098629e-01
3.585079000000000178e+03,3.418243855035427714e-01,9.623619231565649912e-02
3.587007000000000062e+03,3.373066986249284582e-01,-1.448563618317599833e-02
3.588935999999999694e+03,3.327560686261605838e-01,3.534644768325279074e-02
3.590864000000000033e+03,3.281772136306244647e-01,1.260781451764589889e-01
3.592792999999999665e+03,3.235653837887397799e-01,1.114243645803196792e-01
3.594720999999999549e+03,3.189253606762818549e-01,7.288824603387711321e-02
3.596650000000000091e+03,3.142523309912803597e-01,8.654170442344533143e-02
3.598577999999999975e+03,3.095511397619077343e-01,8.681139518683433920e-02
3.600507000000000062e+03,3.048169102337823233e-01,7.594264242232284801e-02
3.602434999999999945e+03,3.000545508874878919e-01,1.125819821973212953e-01
3.604364000000000033e+03,2.952591215162527760e-01,1.454678123141297519e-01
3.606291999999999916e+03,2.904355940530436442e-01,1.027992614921573455e-01
3.608220999999999549e+03,2.855789648386775070e-01,5.009764280344786158e-02
3.610149000000000342e+03,2.806942692585465693e-01,7.558718460911473258e-02
3.612077999999999975e+03,2.757764402010636218e-01,5.108283286510673094e-02
3.614005999999999858e+03,2.708305765040250890e-01,1.742944213530428499e-02
3.615934999999999945e+03,2.658515476034253311e-01,5.477286991754493073e-02
3.617862999999999829e+03,2.608445157894578870e-01,1.838847582284452997e-02
