wavenumber (/cm),baseline value (/cm),baseline-subtracted absorbance (/cm),
3.290019000000000233e+03,2.821542703663597607e-01,-1.044945122865015286e-04
3.291947000000000116e+03,2.815245165247706183e-01,-2.300525181440860045e-03
3.293875000000000000e+03,2.808907850648392213e-01,1.763102707613983799e-03
3.295804000000000087e+03,2.802527441925208862e-01,5.059668854317911357e-03
3.297731999999999971e+03,2.796110554328254949e-01,-1.776227793313933656e-03
3.299660999999999603e+03,2.789650531335130523e-01,-4.342468499102802859e-03
3.301589000000000397e+03,2.783154070740536667e-01,-5.442677944122453759e-04
3.303518000000000029e+03,2.776614433477471167e-01,3.471360308276438822e-04
3.305447000000000116e+03,2.770034978758681987e-01,-2.854093021949555276e-03
3.307375000000000000e+03,2.763419148352239674e-01,-4.345856711866380451e-03
3.309302999999999884e+03,2.756763541762374814e-01,-3.011568274243259236e-03
3.311231999999999971e+03,2.750064675959427163e-01,-2.445561737231871646e-03
3.313159999999999854e+03,2.743329496371922360e-01,-2.257744814190221216e-03
3.315089000000000397e+03,2.736551016299033634e-01,-3.989697394318258983e-03
3.317017000000000280e+03,2.729736263713888889e-01,-2.388141752437011878e-03
3.318945999999999913e+03,2.722878169371059087e-01,-5.897416566105762037e-03
3.320875000000000000e+03,2.715980257572514489e-01,-1.012407305977119920e-02
3.322802999999999884e+03,2.709046135175512404e-01,-8.025033984393081798e-03
3.324730999999999767e+03,2.702072236595087773e-01,-4.357865180609432620e-03
3.326659999999999854e+03,2.695054913712384703e-01,-8.566242646551480711e-03
3.328587999999999738e+03,2.688001442134320129e-01,-2.249595442369967113e-03
3.330517000000000280e+03,2.680904504981675984e-01,3.477102446646174183e-03
3.332445000000000164e+03,2.673771460405980349e-01,-3.773343289013519897e-03
3.334374000000000251e+03,2.666594908983386247e-01,-1.071823258948101376e-02
3.336302000000000135e+03,2.659382291410059551e-01,-1.196698165298620831e-02
3.338230999999999767e+03,2.652126125717524374e-01,-1.183836616581640522e-02
3.340159000000000106e+03,2.644833935146557735e-01,-1.153664749517829824e-02
3.342087999999999738e+03,2.637498155184081483e-01,-6.716348212796763306e-03
3.344015999999999622e+03,2.630126391615474901e-01,-5.105080033397879635e-03
3.345945000000000164e+03,2.622710997383057574e-01,-5.566585903091614274e-03
3.347873000000000047e+03,2.615259660816811049e-01,-5.170037808377603294e-03
3.349802000000000135e+03,2.607764652314461529e-01,-9.138654132358203785e-03
3.351730000000000018e+03,2.600233742750566179e-01,-4.130577861391482308e-03
3.353659000000000106e+03,2.592659119978284465e-01,-3.685219464206523909e-03
3.355586999999999989e+03,2.585048637416749173e-01,-1.043537850438935877e-02
3.357515999999999622e+03,2.577394400374526384e-01,-1.164916333317067565e-02
3.359444000000000415e+03,2.569704344815351149e-01,-5.797146492665161688e-03
3.361373000000000047e+03,2.561970493503187285e-01,-6.517732608936677163e-03
3.363302000000000135e+03,2.554196824735299742e-01,-2.136021938671406328e-03
3.365230000000000018e+03,2.546387399364267168e-01,-1.730407891288365807e-03
3.367157999999999902e+03,2.538538197809820929e-01,-8.077888416010703398e-03
3.369086999999999989e+03,2.530645117957774914e-01,-9.633842449665253049e-03
3.371014999999999873e+03,2.522716343405688733e-01,-7.391436473819790187e-03
3.372944000000000415e+03,2.514743649283701643e-01,-6.095094562007519201e-03
3.374872000000000298e+03,2.506735301733975518e-01,-4.824480861293667378e-03
3.376800999999999931e+03,2.498682993342056236e-01,-1.104506544952482683e-02
3.378729000000000269e+03,2.490595072794690168e-01,-1.279346925195312679e-02
3.380657999999999902e+03,2.482463150132820928e-01,-1.523665355092312934e-02
3.382585999999999785e+03,2.474295656587823800e-01,-1.979190914309214566e-02
3.384514999999999873e+03,2.466084119656004603e-01,-1.739686458578904027e-02
3.386442999999999756e+03,2.457837053113376413e-01,-5.373518265426369123e-03
3.388372000000000298e+03,2.449545901911616141e-01,-6.383898510781138569e-04
3.390300000000000182e+03,2.441219262371339127e-01,-8.539224119341382035e-03
3.392229000000000269e+03,2.432848496899655544e-01,-1.682720554094713217e-02
3.394157000000000153e+03,2.424442284361738587e-01,-1.740334112747077278e-02
3.396085999999999785e+03,2.415991904620113928e-01,-1.728028491246741405e-02
3.398014000000000124e+03,2.407506119084557028e-01,-1.234042486254438575e-02
3.399942999999999756e+03,2.398976125072991294e-01,-3.453571697282109554e-03
3.401870999999999640e+03,2.390410766539794452e-01,-4.415941393506372936e-03
3.403800000000000182e+03,2.381801158258278761e-01,-5.093626414790608514e-03
3.405728000000000065e+03,2.373156226727450857e-01,-1.953047313338673874e-03
3.407657000000000153e+03,2.364467004175994091e-01,-3.658170505711932918e-03
3.409585000000000036e+03,2.355742499647535126e-01,2.954811714022176350e-03
3.411514000000000124e+03,2.346973662826137286e-01,3.424986476699920512e-03
3.413442000000000007e+03,2.338169585300029496e-01,-6.684016807943837790e-03
3.415370999999999640e+03,2.329321134208699462e-01,-8.583991609152463731e-03
3.417299000000000433e+03,2.320437483684951729e-01,-4.677849466037276027e-03
3.419228000000000065e+03,2.311509418323680620e-01,-9.060046794495124622e-03
3.421155999999999949e+03,2.302546194802292945e-01,-9.085659826496061964e-03
3.423085000000000036e+03,2.293538515171089642e-01,-4.974271983950839804e-03
3.425012999999999920e+03,2.284495718652062024e-01,-7.915876327128090750e-04
3.426942000000000007e+03,2.275408424750908765e-01,6.186704286386957019e-03
3.428869999999999891e+03,2.266286055234250085e-01,5.680561272061179778e-03
3.430799000000000433e+03,2.257119147063146869e-01,4.235913396947010856e-03
3.432727000000000317e+03,2.247917204548848247e-01,7.338284182617171858e-03
3.434655999999999949e+03,2.238670682107821719e-01,2.818122699714042945e-03
3.436584000000000287e+03,2.229389166595874272e-01,3.223936949934946838e-03
3.438512999999999920e+03,2.220063029884906669e-01,5.866706750263406267e-03
3.440440999999999804e+03,2.210701941375328161e-01,2.144711894110362671e-04
3.442369999999999891e+03,2.201296190394419483e-01,-7.772222223859925894e-03
3.444297999999999774e+03,2.191855528887201032e-01,-1.056012001411366086e-03
3.446227000000000317e+03,2.182370163636342397e-01,-4.193037386976350422e-03
3.448155000000000200e+03,2.172849929131492885e-01,-4.906727338871930133e-03
3.450084000000000287e+03,2.163284949610693175e-01,6.538331441775013797e-03
3.452012000000000171e+03,2.153685142108203721e-01,3.013152198207302845e-03
3.453940999999999804e+03,2.144040548317471817e-01,-1.883340656449572492e-03
3.455869000000000142e+03,2.134361167817333538e-01,9.760025566497021465e-04
3.457797999999999774e+03,2.124636959756669441e-01,6.848330612677477891e-03
3.459725999999999658e+03,2.114878006258891219e-01,9.435680592228046226e-03
3.461655000000000200e+03,2.105074183928286047e-01,9.419540951737803702e-03
3.463583000000000084e+03,2.095235657432867882e-01,1.196344925130277126e-02
3.465512000000000171e+03,2.085352220832321635e-01,8.754235329041737401e-03
3.467440000000000055e+03,2.075434121339272409e-01,9.583887294114190603e-03
3.469369000000000142e+03,2.065471070468776205e-01,8.119688439287175985e-03
3.471297000000000025e+03,2.055473397978087036e-01,1.098434979872858763e-02
3.473225999999999658e+03,2.045430732837649757e-01,1.853383195661223448e-02
3.475154000000000451e+03,2.035353487349329527e-01,2.171615845319507798e-02
3.477083000000000084e+03,2.025231207938951172e-01,1.778836475255718419e-02
3.479010999999999967e+03,2.015074389452990999e-01,1.735652766468698260e-02
3.480940000000000055e+03,2.004872495772680452e-01,1.827476928190646666e-02
3.482867999999999938e+03,1.994636104289071454e-01,2.236294699882512838e-02
3.484797000000000025e+03,1.984354596338819832e-01,2.884201756506687975e-02
3.486724999999999909e+03,1.974038631857579773e-01,2.675543500561627930e-02
3.488654000000000451e+03,1.963677509637387075e-01,2.371147302760467923e-02
3.490582000000000335e+03,1.953281972158507074e-01,2.761661651115498994e-02
3.492510999999999967e+03,1.942841235668373301e-01,2.393051548092894887e-02
3.494439000000000306e+03,1.932366125191853357e-01,2.100670174886232200e-02
3.496367999999999938e+03,1.921845774431778509e-01,2.624848794559941911e-02
3.498295999999999822e+03,1.911291090957627503e-01,3.108560724370240669e-02
3.500224999999999909e+03,1.900691125927602698e-01,1.873132024075341295e-02
3.502152999999999793e+03,1.890056869455811750e-01,1.486429301133962433e-03
3.504082000000000335e+03,1.879377290155854752e-01,-7.670689444771450205e-04
3.506010000000000218e+03,1.868663460686414979e-01,1.514377914391062951e-02
3.507939000000000306e+03,1.857904267116525787e-01,1.911512283232641440e-02
3.509867000000000189e+03,1.847110864649454953e-01,2.040260962409456980e-02
3.511795999999999822e+03,1.836272056809615805e-01,3.255157001852831966e-02
3.513724000000000160e+03,1.825399081344905028e-01,4.130334430019805270e-02
3.515652999999999793e+03,1.814480659235133686e-01,4.714769849138850111e-02
3.517580999999999676e+03,1.803528110772782966e-01,5.173731104360590471e-02
3.519510000000000218e+03,1.792530074393061668e-01,5.206713477741981011e-02
3.521438000000000102e+03,1.781497952933079887e-01,4.101313560791325363e-02
3.523367000000000189e+03,1.770420302283417513e-01,2.300728187553824355e-02
3.525295000000000073e+03,1.759308607825786908e-01,2.928354639009095317e-02
3.527224000000000160e+03,1.748151342906192340e-01,3.030088054938695485e-02
3.529152000000000044e+03,1.736960075450930674e-01,3.787540998466421005e-02
3.531080999999999676e+03,1.725723196261395032e-01,5.288346952210598584e-02
3.533009000000000015e+03,1.714452355808493422e-01,5.483757474532163778e-02
3.534938000000000102e+03,1.703135862349016705e-01,4.615766125311809853e-02
3.536865999999999985e+03,1.691785448898475153e-01,4.705611270792647849e-02
3.538795000000000073e+03,1.680389341169048478e-01,5.320005181600601096e-02
3.540722999999999956e+03,1.668959354720875865e-01,4.906194055202744986e-02
3.542652000000000044e+03,1.657483632721516997e-01,3.820070149829196682e-02
3.544579999999999927e+03,1.645974073275704441e-01,2.245298686009383760e-02
3.546509000000000015e+03,1.634418737006395617e-01,1.171348261409221880e-02
3.548436999999999898e+03,1.622829604562934236e-01,2.336072481190876182e-02
3.550365999999999985e+03,1.611194654023702100e-01,3.636291209028708060e-02
3.552294000000000324e+03,1.599525948582600776e-01,3.022641271632642290e-02
3.554222999999999956e+03,1.587811383773427565e-01,3.781918624779251337e-02
3.556150999999999840e+03,1.576063105334695180e-01,5.203320098299363261e-02
3.558079999999999927e+03,1.564268926255580894e-01,5.307851779336292264e-02
3.560007999999999811e+03,1.552441074819199684e-01,5.352919596528982193e-02
3.561936999999999898e+03,1.540567281470144323e-01,5.772615947085540933e-02
3.563864999999999782e+03,1.528659857036132053e-01,4.711438220487340622e-02
3.565794000000000324e+03,1.516706449417126734e-01,8.393584460049619000e-03
3.567722000000000207e+03,1.504719451985474521e-01,-9.365456004643002430e-04
3.569650999999999840e+03,1.492686430096545891e-01,4.806479337927727080e-02
3.571579000000000178e+03,1.480619859667253735e-01,8.288360067726907587e-02
3.573507999999999811e+03,1.468507223508375148e-01,8.798789258191874740e-02
3.575435999999999694e+03,1.456361080081443049e-01,7.336551511753203192e-02
3.577364999999999782e+03,1.444168829652632269e-01,6.266891082048420270e-02
3.579292999999999665e+03,1.431943113228060227e-01,5.848655125255342035e-02
3.581222000000000207e+03,1.419671248529299490e-01,5.134196465085733019e-02
3.583150000000000091e+03,1.407365959107096387e-01,3.951011919208829992e-02
3.585079000000000178e+03,1.395014480138394575e-01,1.329968044496404600e-02
3.587007000000000062e+03,1.382629617718560411e-01,-3.667616319402330904e-02
3.588935999999999694e+03,1.370198524479917523e-01,-1.833582091297858430e-02
3.590864000000000033e+03,1.357734089062434535e-01,2.350074474965396787e-02
3.592792999999999665e+03,1.345223381553850572e-01,1.866741296534463190e-02
3.594720999999999549e+03,1.332679373138727641e-01,6.575856162707893748e-03
3.596650000000000091e+03,1.320089051360211485e-01,1.309072386382431619e-02
3.598577999999999975e+03,1.307465469947448611e-01,9.703058817590926033e-03
3.600507000000000062e+03,1.294795533898991380e-01,5.080888718618392641e-03
3.602434999999999945e+03,1.282092379488597444e-01,1.962613073254387830e-02
3.604364000000000033e+03,1.269342829170199138e-01,2.766488233263225682e-02
3.606291999999999916e+03,1.256560101762156378e-01,8.300474597319695835e-03
3.608220999999999549e+03,1.243730937173825879e-01,-1.667654092715226133e-02
3.610149000000000342e+03,1.230868636768143176e-01,-6.521938649762248907e-03
3.612077999999999975e+03,1.217959857909862720e-01,-7.561714651706574752e-03
3.614005999999999858e+03,1.205017984506548956e-01,-1.699236886339255959e-02
3.615934999999999945e+03,1.192029591378327424e-01,-1.578898479867674176e-02
3.617862999999999829e+03,1.179008144977373718e-01,-2.952409475743750233e-02
