baseline wavenumber (cm-1),baseline absorbance (cm-1),baseline-subtracted absorbance (cm-1)
3149.238,0.21036713557,-6.66133814775e-16
3151.167,0.208560218936,0.00564058489754
3153.095,0.206763468165,0.00377911956124
3155.023,0.204975944151,-0.000349263056935
3156.952,0.203196726936,0.00399758439449
3158.881,0.201426746053,0.00576215485884
3160.809,0.199666911885,0.00644686149619
3162.738,0.197915398876,0.0151561732368
3164.666,0.196174023009,0.0189906083095
3166.594,0.1944418739,0.0179541687655
3168.523,0.19271806031,0.013581986065
3170.452,0.191003483052,0.0183271708357
3172.38,0.189299023787,0.0210356492688
3174.309,0.187602914405,0.0123530293271
3176.237,0.185916913441,0.00695988359083
3178.166,0.184239271933,0.0128089580866
3180.094,0.182571729271,0.0183008940089
3182.022,0.180913413367,0.0204987059712
3183.951,0.179263471278,0.0230390484313
3185.88,0.177622765521,0.0211823048148
3187.808,0.175992139461,0.0203310944235
3189.737,0.174369901579,0.026117809041
3191.665,0.172757733821,0.0280754706931
3193.594,0.171153963814,0.0286744486149
3195.522,0.169560254357,0.0265110085896
3197.45,0.167975771658,0.0245640335672
3199.379,0.166399701069,0.0277578194132
3201.308,0.164832866812,0.0306038312864
3203.236,0.163276073958,0.0327155785385
3205.165,0.161727707576,0.0308901622646
3207.093,0.160189373023,0.028420922231
3209.021,0.158660265228,0.0335131773441
3210.95,0.157139598265,0.0344788899094
3212.878,0.155628948771,0.0297984743235
3214.807,0.154126749683,0.028263882563
3216.736,0.152633786927,0.0320377233531
3218.664,0.151150827278,0.0311478278467
3220.593,0.149676332396,0.0289478753637
3222.521,0.148211831049,0.0320525065614
3224.449,0.146756556459,0.032497578647
3226.378,0.145309760996,0.0288392573992
3228.306,0.143872944708,0.0301091236182
3230.235,0.14244461712,0.0298602213403
3232.164,0.141025525864,0.0321457525406
3234.092,0.13961639942,0.0341453875637
3236.021,0.13821577604,0.0344554250734
3237.949,0.136825107897,0.0365757268532
3239.877,0.135443666513,0.0368542156948
3241.806,0.13407074255,0.037206116315
3243.734,0.132707759467,0.0355199418778
3245.663,0.13135330338,0.0348949575568
3247.592,0.130008083625,0.0364403628124
3249.52,0.128672790386,0.0352443529128
3251.448,0.127346723905,0.0322977342798
3253.377,0.126029203569,0.0334668545548
3255.305,0.124721595389,0.0392287833401
3257.234,0.123422542927,0.0435221162161
3259.162,0.122133393049,0.045571816411
3261.091,0.120852808463,0.0413786028836
3263.02,0.119581460208,0.0409363941746
3264.948,0.118320000175,0.0378447857273
3266.876,0.117067766899,0.0363330678511
3268.805,0.115824118063,0.0368339434613
3270.733,0.114590343089,0.041655599097
3272.662,0.113365162128,0.0467090379034
3274.591,0.112149217498,0.0391214580315
3276.519,0.110943132369,0.0348862075602
3278.448,0.109745655614,0.0399559984282
3280.376,0.108558028786,0.0425163258281
3282.304,0.107379628716,0.042067735637
3284.233,0.10620985138,0.0332545171467
3286.161,0.105049909611,0.039174081732
3288.09,0.103898600151,0.0460055581428
3290.019,0.102756527021,0.0408398557271
3291.947,0.101624275097,0.0328254080066
3293.875,0.100501249931,0.0355445067545
3295.804,0.0993868762207,0.0424248412009
3297.732,0.0982823093558,0.0451942712594
3299.661,0.0971864035204,0.0448633723337
3301.589,0.0961002949568,0.0408412725188
3303.518,0.0950228569965,0.0400281555247
3305.447,0.0939546553679,0.0460476633831
3307.375,0.0928962366491,0.0492277392359
3309.303,0.0918470446882,0.0460212502569
3311.232,0.0908065424781,0.043362571759
3313.16,0.0897758088185,0.0481697778255
3315.089,0.0887537744836,0.0477039469571
3317.017,0.0877414991253,0.0536397035335
3318.946,0.0867379326655,0.0580556984985
3320.875,0.0857436025373,0.0546699080517
3322.803,0.0847590170238,0.0548916244973
3324.731,0.0837836582681,0.058465530169
3326.66,0.0828170275585,0.0582063145345
3328.588,0.0818601271042,0.0652746696186
3330.517,0.0809119642697,0.0704831508949
3332.445,0.0799735221167,0.0686143585449
3334.374,0.0790438271573,0.0637278531642
3336.302,0.0781238433056,0.0639730804848
3338.231,0.0772126162214,0.0637999050338
3340.159,0.076311090671,0.0715069646699
3342.088,0.0754183314619,0.0716237152223
3344.016,0.0745352642128,0.0646338500243
3345.945,0.0736609728788,0.0623384087876
3347.873,0.072796363931,0.0654591624254
3349.802,0.0719405404722,0.07318467208
3351.73,0.0710943898257,0.0780468993998
3353.659,0.070257034242,0.0776529982205
3355.587,0.0694293418968,0.0787914031952
3357.516,0.0686104541882,0.079592513813
3359.444,0.0678012201443,0.0769282589096
3361.373,0.0670008003109,0.0721706326772
3363.302,0.066209616809,0.0719052386555
3365.23,0.06542807261,0.0740842167702
3367.158,0.0646557551687,0.0785309815757
3369.087,0.0638922710855,0.076964893855
3371.015,0.0631384119456,0.0766490358825
3372.944,0.0623933957375,0.08140858293
3374.872,0.0616579948989,0.0848329619724
3376.801,0.0609314465659,0.0744410994227
3378.729,0.0602145040286,0.0752724336743
3380.658,0.0595064235707,0.0846719656703
3382.586,0.0588079393347,0.0838655805292
3384.515,0.058118326752,0.0746440785657
3386.443,0.0574383008173,0.0737774976059
3388.372,0.0567671561097,0.080858442901
3390.3,0.0561055884763,0.080108664113
3392.229,0.0554529116438,0.0737973588771
3394.157,0.0548098023118,0.080958477175
3396.086,0.0541755933544,0.0814775215011
3398.014,0.0535509423237,0.0782638667658
3399.943,0.0529352012414,0.0849717395532
3401.871,0.052329008512,0.0802324383886
3403.8,0.0517317353048,0.0792143150894
3405.728,0.0511440008767,0.0865673919197
3407.657,0.0505651955447,0.0864606198827
3409.585,0.0499959194179,0.0788694384426
3411.514,0.049435581961,0.0740355882353
3413.442,0.0488847641355,0.0697610853002
3415.371,0.0483428945538,0.0728481705259
3417.299,0.0478105350296,0.0839099781873
3419.228,0.0472871333229,0.0835236565982
3421.156,0.0467732321001,0.0831958512204
3423.085,0.0462682982685,0.0875035366364
3425.013,0.045772855347,0.0831759775483
3426.942,0.0452863893906,0.0869504323747
3428.87,0.0448094047704,0.0945374803742
3430.799,0.0443414066891,0.0866626124793
3432.727,0.0438828803702,0.0772587180222
3434.656,0.043433350164,0.0749087428952
3436.584,0.0429932821464,0.0786445289527
3438.513,0.0425622198153,0.0815187818851
3440.441,0.0421406100991,0.0800606574848
3442.37,0.0417280156431,0.0740433555116
3444.298,0.0413248642282,0.0745608986409
3446.227,0.0409307376474,0.0738172914143
3448.155,0.0405460445337,0.0783285883307
3450.084,0.040170385828,0.0852694039386
3452.012,0.0398041510157,0.0797050466965
3453.941,0.0394469601851,0.0737312744725
3455.869,0.0390991836741,0.0807129974977
3457.798,0.0387604607186,0.0811506538277
3459.726,0.0384311425089,0.0822838057056
3461.655,0.0381108874286,0.083768846688
3463.583,0.0378000275202,0.083690929351
3465.512,0.037498240315,0.0914505925804
3467.44,0.0372058387079,0.0921665526973
3469.369,0.0369225193778,0.0868153071796
3471.297,0.036648576072,0.0934789552311
3473.226,0.0363837246171,0.0987770421166
3475.154,0.0361282396126,0.0994970502313
3477.083,0.0358818560328,0.102027403513
3479.011,0.0356448293296,0.0984755911372
3480.94,0.0354169136249,0.088494819255
3482.868,0.0351983452231,0.0912415991269
3484.797,0.0349888973935,0.099432960699
3486.725,0.034788787293,0.0925191428354
3488.654,0.0345978073385,0.09982250492
3490.582,0.0344161555393,0.107050067988
3492.511,0.0342436434599,0.100545350202
3494.439,0.034080449962,0.0902702997675
3496.368,0.0339264057578,0.0873674572813
3498.296,0.0337816705612,0.0982858823836
3500.225,0.0336460942321,0.101065607731
3502.153,0.0335198173368,0.0992194004712
3504.082,0.0334027088828,0.0975348394245
3506.01,0.0332948902889,0.100825530178
3507.939,0.03319624971,0.0994919555768
3509.867,0.0331068894174,0.09433475535
3511.796,0.0330267167136,0.0998222553068
3513.724,0.0329558147223,0.108607023429
3515.653,0.0328941098936,0.115855310419
3517.581,0.0328416662036,0.120706022775
3519.51,0.0327984292501,0.121427107927
3521.438,0.0327644438614,0.128639946307
3523.367,0.032739674783,0.125585414102
3525.295,0.0327241476956,0.129294711479
3527.224,0.0327178464924,0.131125869693
3529.152,0.0327207777063,0.130098050552
3531.081,0.0327329443781,0.124278185626
3533.009,0.0327543338934,0.121215367761
3534.938,0.0327849684404,0.119654357576
3536.866,0.0328248162569,0.113389436332
3538.795,0.032873918679,0.117025602112
3540.723,0.0329322247969,0.127501381634
3542.652,0.0329997950941,0.117839592756
3544.58,0.0330765595133,0.10424296437
3546.509,0.0331625976856,0.100709716428
3548.437,0.0332578204061,0.11076521252
3550.366,0.0333623264536,0.10755048851
3552.294,0.0334760074754,0.0985443975331
3554.223,0.0335989813979,0.110000493019
3556.151,0.0337311207211,0.123306288461
3558.08,0.0338725625188,0.124971926583
3560.008,0.0340231601432,0.127271475813
3561.937,0.034183069816,0.13199099109
3563.865,0.0343521257418,0.135641690922
3565.794,0.0345305032897,0.117910368561
3567.722,0.0347180175168,0.120738003507
3569.651,0.0349148629398,0.157765613177
3571.579,0.0351208354682,0.173443857684
3573.508,0.0353361487664,0.17311183392
3575.436,0.0355605795961,0.162202598639
3577.365,0.0357943607694,0.133321422196
3579.293,0.0360372499004,0.110959194681
3581.222,0.0362894989488,0.0969814857474
3583.15,0.0365508463811,0.0867425529078
3585.079,0.0368215633047,0.0732101262919
3587.007,0.0371013690383,0.0518830180385
3588.936,0.037390553837,0.0636490195129
3590.864,0.0376888178719,0.0806393626815
3592.793,0.0379964705457,0.0669130981666
3594.721,0.038313192882,0.0534374640975
3596.65,0.0386393134309,0.0579992705852
3598.578,0.0389744940684,0.0568440250226
3600.507,0.0393190824925,0.054276527339
3602.435,0.0396727214314,0.0614518727872
3604.364,0.0400357777305,0.0659821539436
3606.292,0.0404078749707,0.0538949539055
3608.221,0.040789399145,0.0260679203789
3610.149,0.0411799546865,0.0283980326377
3612.078,0.0415799467359,0.0309567668211
3614.006,0.0419889605787,0.0295321400551
3615.935,0.0424074205032,0.0405180702991
3617.863,0.0428348926474,0.0289026247433
3619.792,0.043271820447,0.00703889218248
3621.72,0.0437177508924,0.0231225644577
3623.649,0.0441731465672,0.038624812932
3625.577,0.044637535314,0.039265695479
3627.506,0.0451113988638,0.0177136127299
3629.434,0.0455942459119,-0.0219816319067
3631.363,0.0460865773369,0.0159152776639
3633.291,0.0465878826863,0.0356141578145
3635.22,0.0470986819864,0.0373819177972
3637.148,0.0476184456371,0.0371118063338
3639.077,0.0481477128124,0.034974871822
3641.005,0.0486859347644,0.0389427559142
3642.934,0.0492336698147,0.034414498372
3644.862,0.0497903500681,0.0352119686829
3646.791,0.0503565529936,0.000958178804242
3648.719,0.0509316915482,-0.0441709866479
3650.648,0.0515163623488,-0.0340847655023
3652.576,0.0521099592048,0.0141050663015
3654.505,0.0527130978805,0.0264591080246
3656.433,0.0533251530378,0.00983143994414
3658.362,0.0539467595886,0.0144084730594
3660.29,0.0545772730472,0.033219913535
3662.219,0.0552173474732,0.037372697356
3664.147,0.0558663192331,0.0320174340518
3666.076,0.0565248615342,0.0194536513736
3668.004,0.0571922915954,-0.00696737275165
3669.933,0.0578693017716,-0.041332742798
3671.861,0.0585551901341,-0.0113145037838
3673.79,0.0592506681854,-0.00423598276264
3675.718,0.0599550148493,-0.0571230470026
3677.647,0.0606689607757,-0.0279235596318
3679.575,0.0613917657409,-0.00157340123323
3681.504,0.0621241795424,0.00589483421548
3683.432,0.0628654428089,0.0166414361523
3685.361,0.0636163244856,0.0205272834909
3687.289,0.0643760460534,-0.00035533187809
3689.218,0.0651453956052,-0.0396229037208
3691.146,0.0659235754743,-0.023478066122
3693.075,0.0667113929012,0.0019313648666
3695.003,0.0675080310716,0.0118527665787
3696.932,0.0683143163737,0.0151421683999
3698.86,0.0691294128454,0.0143270719281
