wavenumber (/cm),baseline value (/cm),baseline-subtracted absorbance (/cm),
3.290019000000000233e+03,3.124277726001878364e-01,-1.332267629550187849e-15
3.291947000000000116e+03,3.118985391089577064e-01,-2.965640693300741759e-03
3.293875000000000000e+03,3.113611102435402955e-01,-1.166586327243135379e-02
3.295804000000000087e+03,3.108152008773483743e-01,-1.155052240577369993e-02
3.297731999999999971e+03,3.102613770128357373e-01,-9.356437590655186654e-03
3.299660999999999603e+03,3.096990641439187897e-01,-1.149309955864374899e-02
3.301589000000000397e+03,3.091288452803144793e-01,-1.813630101190844002e-02
3.303518000000000029e+03,3.085501289086725052e-01,-1.660045509693008903e-02
3.305447000000000116e+03,3.079632086592116735e-01,-1.184764481951017245e-02
3.307375000000000000e+03,3.073683951716077445e-01,-6.219280539734750590e-03
3.309302999999999884e+03,3.067653863098147582e-01,-1.256314959033710821e-02
3.311231999999999971e+03,3.061538629327245076e-01,-1.881369517876385622e-02
3.313159999999999854e+03,3.055344590718362952e-01,3.891449595451623722e-03
3.315089000000000397e+03,3.049065321920245708e-01,1.979430657777991875e-02
3.317017000000000280e+03,3.042707333320411323e-01,1.077213712462232742e-02
3.318945999999999913e+03,3.036264029495043815e-01,2.087483350588614783e-03
3.320875000000000000e+03,3.029738686891452204e-01,-2.233887328474404299e-03
3.322802999999999884e+03,3.023134752051657159e-01,-3.319067003861420062e-03
3.324730999999999767e+03,3.016448863469971542e-01,-5.581512628451301694e-03
3.326659999999999854e+03,3.009677489590103505e-01,4.063873903192849468e-05
3.328587999999999738e+03,3.002827651017465627e-01,3.863868087845556687e-04
3.330517000000000280e+03,2.995892242110365089e-01,-1.398171088949240470e-03
3.332445000000000164e+03,2.988878453546792713e-01,2.044121094528339455e-03
3.334374000000000251e+03,2.981779009612441911e-01,-6.802308773674603515e-04
3.336302000000000135e+03,2.974601271057917273e-01,-6.243910889575543521e-03
3.338230999999999767e+03,2.967337792096333970e-01,-7.554841651385535428e-03
3.340159000000000106e+03,2.959996103550874835e-01,-6.808557233000334108e-03
3.342087999999999738e+03,2.952568589562041268e-01,4.737549245100503015e-03
3.344015999999999622e+03,2.945062951025647635e-01,8.695009650463880746e-03
3.345945000000000164e+03,2.937471402009563803e-01,5.915487944430086742e-03
3.347873000000000047e+03,2.929801813482217909e-01,8.166137384303828739e-03
3.349802000000000135e+03,2.922046229438919340e-01,1.709826615210041645e-02
3.351730000000000018e+03,2.914212690920621185e-01,1.972598160691263480e-02
3.353659000000000106e+03,2.906293071850090115e-01,1.917497986065708204e-02
3.355586999999999989e+03,2.898295583340857462e-01,2.283772964354668922e-02
3.357515999999999622e+03,2.890211929243058364e-01,1.987349486693368306e-02
3.359444000000000415e+03,2.882050490742891213e-01,1.844359957435925956e-02
3.361373000000000047e+03,2.873802801617859615e-01,2.714068908332101238e-02
3.363302000000000135e+03,2.865473073714621677e-01,2.773880632844449856e-02
3.365230000000000018e+03,2.857065688974476103e-01,8.895481428740525942e-03
3.367157999999999902e+03,2.848576350492439957e-01,7.128385454017616141e-03
3.369086999999999989e+03,2.840000591312925593e-01,1.073526239713218366e-02
3.371014999999999873e+03,2.831347302839919422e-01,3.380647162419814222e-03
3.372944000000000415e+03,2.822607508633154794e-01,7.262016063955822887e-04
3.374872000000000298e+03,2.813790270169249652e-01,-9.045383028108755497e-03
3.376800999999999931e+03,2.804886440935252523e-01,-2.419321072912672399e-02
3.378729000000000269e+03,2.795905252480377357e-01,-2.884402012222264666e-02
3.380657999999999902e+03,2.786837388219112199e-01,-2.098196808565799820e-02
3.382585999999999785e+03,2.777692249773320299e-01,-1.096027809941957365e-02
3.384514999999999873e+03,2.768460350484822641e-01,-1.290754483413025788e-02
3.386442999999999756e+03,2.759151262048096243e-01,-2.403162201096087358e-02
3.388372000000000298e+03,2.749755327732348320e-01,-3.181243864462346416e-02
3.390300000000000182e+03,2.740282289304669661e-01,-2.719225502552746754e-02
3.392229000000000269e+03,2.730722319961689237e-01,-2.290913786755788273e-02
3.394157000000000153e+03,2.721085331543076080e-01,-1.899856111330144870e-02
3.396085999999999785e+03,2.711361327172863156e-01,-2.236446449734219577e-02
3.398014000000000124e+03,2.701560388763297738e-01,-2.727999041407480618e-02
3.399942999999999756e+03,2.691672349365834549e-01,-2.576182953117811536e-02
3.401870999999999640e+03,2.681707460965334633e-01,-2.801790359886346948e-02
3.403800000000000182e+03,2.671655386540621180e-01,-2.561381451613109483e-02
3.405728000000000065e+03,2.661526548149186766e-01,-3.053196515974665459e-02
3.407657000000000153e+03,2.651310438697240812e-01,-4.120653315211009193e-02
3.409585000000000036e+03,2.641017650314871901e-01,-3.309058143409671082e-02
3.411514000000000124e+03,2.630637505835675682e-01,-2.401342439531073403e-02
3.413442000000000007e+03,2.620180767462354510e-01,-2.522776919730773670e-02
3.415370999999999640e+03,2.609636587955925791e-01,-2.627679952252659490e-02
3.417299000000000433e+03,2.599015899591670120e-01,-1.546076982869193372e-02
3.419228000000000065e+03,2.588307685057991137e-01,-2.635639758315244663e-02
3.421155999999999949e+03,2.577523046702800968e-01,-3.690141930215351529e-02
3.423085000000000036e+03,2.566650797141871720e-01,-3.063339285491450958e-02
3.425012999999999920e+03,2.555702208795747055e-01,-1.281066822347054490e-02
3.426942000000000007e+03,2.544665924207585306e-01,-2.288586828960159636e-03
3.428869999999999891e+03,2.533553385870508379e-01,2.564512298317112027e-03
3.430799000000000433e+03,2.522353066255096365e-01,4.757837752358273775e-04
3.432727000000000317e+03,2.511076577927067177e-01,-1.601073328198898693e-02
3.434655999999999949e+03,2.499712223284440427e-01,-1.530393435081167652e-02
3.436584000000000287e+03,2.488271784965458977e-01,-7.453459950413687807e-03
3.438512999999999920e+03,2.476743395295599726e-01,-6.946473732729163686e-03
3.440440999999999804e+03,2.465139006985701542e-01,2.661552194167526864e-04
3.442369999999999891e+03,2.453446582288574263e-01,3.158603653714786574e-03
3.444297999999999774e+03,2.441678243987741581e-01,1.296294892931149079e-03
3.446227000000000317e+03,2.429821784263364037e-01,-2.695132759980678472e-03
3.448155000000000200e+03,2.417889495971579095e-01,-8.933404396785471491e-03
3.450084000000000287e+03,2.405869001219969050e-01,-2.874877754802218632e-03
3.452012000000000171e+03,2.393772762937231846e-01,9.644158934608570988e-03
3.453940999999999804e+03,2.381588233158407064e-01,3.516852359834565789e-03
3.455869000000000142e+03,2.369328044884735363e-01,3.062535679279942968e-03
3.457797999999999774e+03,2.356979480078642553e-01,1.036728964357980232e-02
3.459725999999999658e+03,2.344555341814036353e-01,1.734968483071175349e-02
3.461655000000000200e+03,2.332042741980711043e-01,2.467177426418376562e-02
3.463583000000000084e+03,2.319454653725152582e-01,4.999954860698130332e-02
3.465512000000000171e+03,2.306778018864577007e-01,6.402676474914348326e-02
3.467440000000000055e+03,2.294025980618101812e-01,6.876981573129303804e-02
3.469369000000000142e+03,2.281185310730275972e-01,6.950029464924645239e-02
3.471297000000000025e+03,2.268269322492848517e-01,6.171081239190745471e-02
3.473225999999999658e+03,2.255264617577807940e-01,7.539898092628227744e-02
3.475154000000000451e+03,2.242184679349428222e-01,9.176102880317404953e-02
3.477083000000000084e+03,2.229015939407119617e-01,1.087069801506204136e-01
3.479010999999999967e+03,2.215772051187823166e-01,1.119269887302392075e-01
3.480940000000000055e+03,2.202439276218282060e-01,9.609810406503083158e-02
3.482867999999999938e+03,2.189031438008033348e-01,1.185600435244529294e-01
3.484797000000000025e+03,2.175534628011241978e-01,1.564101905073564946e-01
3.486724999999999909e+03,2.161962839810076531e-01,1.616853562799427380e-01
3.488654000000000451e+03,2.148301994786034896e-01,1.475770698597000941e-01
3.490582000000000335e+03,2.134566256593917188e-01,1.484455178634414008e-01
3.492510999999999967e+03,2.120741376542643053e-01,1.609920319636291008e-01
3.494439000000000306e+03,2.106841688359573084e-01,1.606662505489446779e-01
3.496367999999999938e+03,2.092852773281066447e-01,1.528554496057235035e-01
3.498295999999999822e+03,2.078789135107061981e-01,1.565125123979607125e-01
3.500224999999999909e+03,2.064636185001305080e-01,1.611719826182291815e-01
3.502152999999999793e+03,2.050408596836366115e-01,1.698407805773136658e-01
3.504082000000000335e+03,2.036091611703358950e-01,1.834998789042212586e-01
3.506010000000000218e+03,2.021700073547485488e-01,2.021766841643564128e-01
3.507939000000000306e+03,2.007219053387228058e-01,2.122380201039608671e-01
3.509867000000000189e+03,1.992663565240420098e-01,2.202518168217173500e-01
3.511795999999999822e+03,1.978018510052930168e-01,2.426501527225726207e-01
3.513724000000000160e+03,1.963299071915169947e-01,2.785321617739999756e-01
3.515652999999999793e+03,1.948489981700447515e-01,3.166980661356399995e-01
3.517580999999999676e+03,1.933606593571752796e-01,3.356523881731133807e-01
3.519510000000000218e+03,1.918633468329780101e-01,3.544544537262016570e-01
3.521438000000000102e+03,1.903586130210133120e-01,3.756162238848579360e-01
3.523367000000000189e+03,1.888448969940927924e-01,3.732632111140150588e-01
3.525295000000000073e+03,1.873237681830346446e-01,3.705793073062475518e-01
3.527224000000000160e+03,1.857936486533890985e-01,3.644374790260143104e-01
3.529152000000000044e+03,1.842561248432375010e-01,3.601147978035470487e-01
3.531080999999999676e+03,1.827096018108669284e-01,3.613677514044171257e-01
3.533009000000000015e+03,1.811556830016218811e-01,3.502236273432054459e-01
3.534938000000000102e+03,1.795927564665262821e-01,3.229282127785808587e-01
3.536865999999999985e+03,1.780224426581860087e-01,3.161844538935378868e-01
3.538795000000000073e+03,1.764431126203689359e-01,3.581412303432842670e-01
3.540722999999999956e+03,1.748564038129334364e-01,3.984940155719685073e-01
3.542652000000000044e+03,1.732606702723931136e-01,3.968688730640466122e-01
3.544579999999999927e+03,1.716575664658641642e-01,3.837888454633062718e-01
3.546509000000000015e+03,1.700454294225988150e-01,3.812360244450617719e-01
3.548436999999999898e+03,1.684259306169746395e-01,3.828778904454670506e-01
3.550365999999999985e+03,1.667973900709860402e-01,3.746033555021730521e-01
3.552294000000000324e+03,1.651614962662701913e-01,3.579773667346615174e-01
3.554222999999999956e+03,1.635165522175547892e-01,3.798925810536470937e-01
3.556150999999999840e+03,1.618642634137437142e-01,4.210835464651003779e-01
3.558079999999999927e+03,1.602029158623050620e-01,4.658114364210125258e-01
3.560007999999999811e+03,1.585342320594005372e-01,5.156010894690241653e-01
3.561936999999999898e+03,1.568564810052386349e-01,5.235726895446214391e-01
3.563864999999999782e+03,1.551714022032388840e-01,4.981455595861363772e-01
3.565794000000000324e+03,1.534772476463501789e-01,4.787380366034167389e-01
3.567722000000000207e+03,1.517757738452605309e-01,5.049956147847486365e-01
3.569650999999999840e+03,1.500652157856485758e-01,5.650816621267464868e-01
3.571579000000000178e+03,1.483473469854637017e-01,6.060827555308454517e-01
3.573507999999999811e+03,1.466203854231267201e-01,5.910780302339093684e-01
3.575435999999999694e+03,1.448861216238448435e-01,5.147470563817467815e-01
3.577364999999999782e+03,1.431427565587863882e-01,4.139411204216422169e-01
3.579292999999999665e+03,1.413920977604110618e-01,3.307737922675477726e-01
3.581222000000000207e+03,1.396323291926258037e-01,2.693937658679517178e-01
3.583150000000000091e+03,1.378652753951570276e-01,2.182810433373683079e-01
3.585079000000000178e+03,1.360891033246485193e-01,1.693004586511197562e-01
3.587007000000000062e+03,1.343056545280862935e-01,1.135433669071417295e-01
3.588935999999999694e+03,1.325130789548563115e-01,9.084666009453790103e-02
3.590864000000000033e+03,1.307132351591970831e-01,9.721407145776450598e-02
3.592792999999999665e+03,1.289042560832420747e-01,9.854774764462348458e-02
3.594720999999999549e+03,1.270880172884911730e-01,1.049585810339688230e-01
3.596650000000000091e+03,1.252626347098093618e-01,1.185108974430331141e-01
3.598577999999999975e+03,1.234300009159650102e-01,1.048020587298874595e-01
3.600507000000000062e+03,1.215882148345599489e-01,7.219556894922374291e-02
3.602434999999999945e+03,1.197391860416203713e-01,8.979483073377547697e-02
3.604364000000000033e+03,1.178809964574920599e-01,1.169065151920882784e-01
3.606291999999999916e+03,1.160155726654590325e-01,9.614845342960132157e-02
3.608220999999999549e+03,1.141409795786074710e-01,6.238558146519457281e-02
3.610149000000000342e+03,1.122591607874809938e-01,4.684987928707640137e-02
3.612077999999999975e+03,1.103681641979008532e-01,3.804190103975035875e-02
3.614005999999999858e+03,1.084699504076809262e-01,3.611252862307368083e-02
3.615934999999999945e+03,1.065625503153793119e-01,4.651107503410778499e-02
3.617862999999999829e+03,1.046479415260641588e-01,2.357573042174565536e-02
