wavenumber (/cm),baseline value (/cm),baseline-subtracted absorbance (/cm),
3.290019000000000233e+03,4.973432432432378647e-01,5.273559366969493567e-15
3.291947000000000116e+03,4.965647369911323494e-01,-1.385487339096713733e-04
3.293875000000000000e+03,4.957746856797147217e-01,-3.628866200738878334e-05
3.295804000000000087e+03,4.949726705476305000e-01,-1.480871852383491838e-03
3.297731999999999971e+03,4.941595231294897417e-01,-5.131377742723597368e-03
3.299660999999999603e+03,4.933343999113741773e-01,-4.494511747348106656e-03
3.301589000000000397e+03,4.924981563865085121e-01,-5.306730477841192783e-03
3.303518000000000029e+03,4.916499250823598288e-01,-3.920288549275008361e-03
3.305447000000000116e+03,4.907901367395925973e-01,-6.962084549471503347e-03
3.307375000000000000e+03,4.899192460605910071e-01,-7.502284271215409195e-03
3.309302999999999884e+03,4.890368103222790808e-01,-5.157593174096419819e-03
3.311231999999999971e+03,4.881423628460677122e-01,-5.755223983066881654e-03
3.313159999999999854e+03,4.872368310010308790e-01,-1.073850854063945759e-02
3.315089000000000397e+03,4.863192754387863914e-01,-7.036796408031509298e-03
3.317017000000000280e+03,4.853906474870264276e-01,-1.253275632413231033e-03
3.318945999999999913e+03,4.844499838387505974e-01,1.617676925461941639e-03
3.320875000000000000e+03,4.834977631518544428e-01,-1.841099591742667574e-03
3.322802999999999884e+03,4.825344880459585539e-01,-2.694367878039449771e-04
3.324730999999999767e+03,4.815596678807523290e-01,-1.121375918428646479e-04
3.326659999999999854e+03,4.805727880604120372e-01,5.802048845459373272e-03
3.328587999999999738e+03,4.795748717884826817e-01,6.780300625310375917e-03
3.330517000000000280e+03,4.785648838821074946e-01,4.037725623950272347e-03
3.332445000000000164e+03,4.775438715034550086e-01,5.067342747369640854e-04
3.334374000000000251e+03,4.765107755110502552e-01,-2.019815585607653841e-03
3.336302000000000135e+03,4.754666670256728622e-01,-1.506648386343789614e-03
3.338230999999999767e+03,4.744104629472332135e-01,3.894010491722943446e-03
3.340159000000000106e+03,4.733432583551344663e-01,1.806042670028651376e-03
3.342087999999999738e+03,4.722639461906634750e-01,3.554879531610433130e-03
3.344015999999999622e+03,4.711736454918380446e-01,3.353288338544146985e-03
3.345945000000000164e+03,4.700712252413392633e-01,1.423182959965407779e-03
3.347873000000000047e+03,4.689578284357907023e-01,6.002656186762822532e-03
3.349802000000000135e+03,4.678323000992570257e-01,1.319994593988543796e-02
3.351730000000000018e+03,4.666958071869871105e-01,1.261845189968574532e-02
3.353659000000000106e+03,4.655471707644167623e-01,1.629942755804364429e-02
3.355586999999999989e+03,4.643875817454219401e-01,2.055743223407474618e-02
3.357515999999999622e+03,4.632158372368255783e-01,3.066766695702344281e-02
3.359444000000000415e+03,4.620331521111076256e-01,3.061475096438154297e-02
3.361373000000000047e+03,4.608382995164763685e-01,2.249711520859348779e-02
3.363302000000000135e+03,4.596318898832265631e-01,9.525519250044689468e-03
3.365230000000000018e+03,4.584145576033726854e-01,6.048536525238568107e-03
3.367157999999999902e+03,4.571856802642066953e-01,5.299594665895746015e-03
3.369086999999999989e+03,4.559446114975127529e-01,3.732555324481523495e-03
3.371014999999999873e+03,4.546926380516218558e-01,-1.488910185825143007e-03
3.372944000000000415e+03,4.534284611988947944e-01,-1.142370817000387673e-02
3.374872000000000298e+03,4.521533916462825431e-01,-2.028964514115666473e-02
3.376800999999999931e+03,4.508661067075241391e-01,-1.727756989484935390e-02
3.378729000000000269e+03,4.495679410481869809e-01,-1.353224673318237370e-02
3.380657999999999902e+03,4.482575480233972343e-01,-1.739715659748847232e-02
3.382585999999999785e+03,4.469362862573369455e-01,-2.519164506442000961e-02
3.384514999999999873e+03,4.456027851465158562e-01,-3.128116352489423990e-02
3.386442999999999756e+03,4.442584272737306605e-01,-3.124957359246322008e-02
3.388372000000000298e+03,4.429018180768764523e-01,-1.995885442356809536e-02
3.390300000000000182e+03,4.415343640973681261e-01,-2.211656353818830523e-02
3.392229000000000269e+03,4.401546468144825752e-01,-3.252342593843410290e-02
3.394157000000000153e+03,4.387640967282511184e-01,-3.814275469656419615e-02
3.396085999999999785e+03,4.373612713593324486e-01,-3.044030211422527055e-02
3.398014000000000124e+03,4.359476251663778612e-01,-2.864781155966772408e-02
3.399942999999999756e+03,4.345216917114278488e-01,-2.851488835634857777e-02
3.401870999999999640e+03,4.330849494117483545e-01,-2.972502396906423483e-02
3.403800000000000182e+03,4.316359078707652230e-01,-3.121922567132434656e-02
3.405728000000000065e+03,4.301760694643625982e-01,-3.174149350909710732e-02
3.407657000000000153e+03,4.287039198373481241e-01,-2.712544826232482498e-02
3.409585000000000036e+03,4.272209853242223687e-01,-2.602350163363525981e-02
3.411514000000000124e+03,4.257257276111747757e-01,-2.143737719178989698e-02
3.413442000000000007e+03,4.242196969913258897e-01,-1.946648170707615533e-02
3.415370999999999640e+03,4.227013311922487304e-01,-1.823050174210888441e-02
3.417299000000000433e+03,4.211722044656731612e-01,-2.086409635756497627e-02
3.419228000000000065e+03,4.196307305805628829e-01,-1.843930467189552891e-02
3.421155999999999949e+03,4.180785077472659594e-01,-1.971224493272732969e-02
3.423085000000000036e+03,4.165139257761243385e-01,-1.236089688516456286e-02
3.425012999999999920e+03,4.149386068361042845e-01,-5.393965643187226267e-03
3.426942000000000007e+03,4.133509167789277683e-01,-3.818763936430158434e-03
3.428869999999999891e+03,4.117525017321845837e-01,-7.914197911122078377e-03
3.430799000000000433e+03,4.101417035889767249e-01,-5.561740867634779040e-03
3.432727000000000317e+03,4.085201924355086334e-01,-5.254488800839507423e-03
3.434655999999999949e+03,4.068862862062712082e-01,-5.487497762655169087e-03
3.436584000000000287e+03,4.052416789460782098e-01,-8.265444090533147214e-03
3.438512999999999920e+03,4.035846646308076657e-01,-5.475717752895292723e-03
3.440440999999999804e+03,4.019169612638933131e-01,3.824795562371030577e-04
3.442369999999999891e+03,4.002368388625896500e-01,1.712741752508184501e-03
3.444297999999999774e+03,3.985460393889521669e-01,-8.086675343388916026e-04
3.446227000000000317e+03,3.968428089016153848e-01,-6.731066124355422620e-03
3.448155000000000200e+03,3.951289133212529947e-01,-8.274766070553940533e-03
3.450084000000000287e+03,3.934025747478848700e-01,6.157164301509310267e-03
3.452012000000000171e+03,3.916655830607993494e-01,1.279080090937773084e-02
3.453940999999999804e+03,3.899161364014016584e-01,1.823586732646415021e-02
3.455869000000000142e+03,3.881560486075912308e-01,2.177992529734823490e-02
3.457797999999999774e+03,3.863834938621604209e-01,3.000271303439122628e-02
3.459725999999999658e+03,3.846003099616268628e-01,3.293286804396494682e-02
3.461655000000000200e+03,3.828046471301629339e-01,3.677261288847638587e-02
3.463583000000000084e+03,3.809983671229062452e-01,4.377106437755967638e-02
3.465512000000000171e+03,3.791795962054091973e-01,4.962105617110518230e-02
3.467440000000000055e+03,3.773502200914293780e-01,5.661585632981952498e-02
3.469369000000000142e+03,3.755083410879027639e-01,7.390731594844385244e-02
3.471297000000000025e+03,3.736558688671980377e-01,8.480228583923249408e-02
3.473225999999999658e+03,3.717908817776365282e-01,9.130259445721894407e-02
3.475154000000000451e+03,3.699153134502104479e-01,9.596735197383426952e-02
3.477083000000000084e+03,3.680272182746193721e-01,1.039452887151289251e-01
3.479010999999999967e+03,3.661285538404683848e-01,1.187055561315726870e-01
3.480940000000000055e+03,3.642173505788441901e-01,1.298477006793104516e-01
3.482867999999999938e+03,3.622955900379700722e-01,1.286037575855155102e-01
3.484797000000000025e+03,3.603612786903127585e-01,1.338132786256238105e-01
3.486724999999999909e+03,3.584164220427155101e-01,1.397413598771353738e-01
3.488654000000000451e+03,3.564590026090250774e-01,1.480203077358024366e-01
3.490582000000000335e+03,3.544910498547029221e-01,1.550889128666390615e-01
3.492510999999999967e+03,3.525105223349811467e-01,1.535950694637140401e-01
3.494439000000000306e+03,3.505194734739376372e-01,1.505935740563513203e-01
3.496367999999999938e+03,3.485158378681827429e-01,1.548050381802794639e-01
3.498295999999999822e+03,3.465016929004143265e-01,1.577138709392875704e-01
3.500224999999999909e+03,3.444749492086298659e-01,1.655271943142033741e-01
3.502152999999999793e+03,3.424377081341365425e-01,1.753183962461057899e-01
3.504082000000000335e+03,3.403878563563225157e-01,1.973663840910213629e-01
3.506010000000000218e+03,3.383275191751060618e-01,2.230884174511753582e-01
3.507939000000000306e+03,3.362545593112571396e-01,2.327373325806347815e-01
3.509867000000000189e+03,3.341711260233140024e-01,2.429978394939273922e-01
3.511795999999999822e+03,3.320750580734337376e-01,2.670762000812727521e-01
3.513724000000000160e+03,3.299685286787692462e-01,2.959301665682019244e-01
3.515652999999999793e+03,3.278493526428576388e-01,3.301677023431628388e-01
3.517580999999999676e+03,3.257197271414717932e-01,3.582209065957135952e-01
3.519510000000000218e+03,3.235774430195252904e-01,3.747928272507450309e-01
3.521438000000000102e+03,3.214247214114145379e-01,3.867228088774949946e-01
3.523367000000000189e+03,3.192593292034366925e-01,3.919115002467030706e-01
3.525295000000000073e+03,3.170835114886028094e-01,3.930108967127019515e-01
3.527224000000000160e+03,3.148950111945936214e-01,3.844007017597399489e-01
3.529152000000000044e+03,3.126960973730348314e-01,3.709761300267788720e-01
3.531080999999999676e+03,3.104844889929960772e-01,3.669538148280662160e-01
3.533009000000000015e+03,3.082624790647123803e-01,3.639679962381769940e-01
3.534938000000000102e+03,3.060277625986387307e-01,3.586659000295067123e-01
3.536865999999999985e+03,3.037826565636336795e-01,3.536891980496001953e-01
3.538795000000000073e+03,3.015248320115286873e-01,3.750048045215561565e-01
3.540722999999999956e+03,2.992566298698005056e-01,4.090912732056888323e-01
3.542652000000000044e+03,2.969756972316623944e-01,4.250935478755137886e-01
3.544579999999999927e+03,2.946843989832110822e-01,4.071024602898551947e-01
3.546509000000000015e+03,2.923803582590398520e-01,3.885667992432901841e-01
3.548436999999999898e+03,2.900659639038654092e-01,3.849184722564329419e-01
3.550365999999999985e+03,2.877388150936628364e-01,3.791757235829449346e-01
3.552294000000000324e+03,2.854013246317617103e-01,3.711189922368309801e-01
3.554222999999999956e+03,2.830510677355295712e-01,4.022977673064089821e-01
3.556150999999999840e+03,2.806904811669070909e-01,4.441345887305765405e-01
3.558079999999999927e+03,2.783171161846400565e-01,4.885675995655927029e-01
3.560007999999999811e+03,2.759334335092944457e-01,5.312672188672200591e-01
3.561936999999999898e+03,2.735369604409960687e-01,5.492377832682302508e-01
3.563864999999999782e+03,2.711301816589255509e-01,5.274684203914006275e-01
3.565794000000000324e+03,2.687106005045940549e-01,4.818740220489938775e-01
3.567722000000000207e+03,2.662807256158004066e-01,4.794884262947309850e-01
3.569650999999999840e+03,2.638380363754393443e-01,5.630066048174779958e-01
3.571579000000000178e+03,2.613850653799207890e-01,6.105322691960348713e-01
3.573507999999999811e+03,2.589192680535266078e-01,6.003074793835656564e-01
3.575435999999999694e+03,2.564432009512866983e-01,5.329093619564488904e-01
3.577364999999999782e+03,2.539542955388593981e-01,4.391745954210659608e-01
3.579292999999999665e+03,2.514551323298945817e-01,3.451369459552873220e-01
3.581222000000000207e+03,2.489431188314341625e-01,2.737542716625078754e-01
3.583150000000000091e+03,2.464208595157462156e-01,2.160810044171522226e-01
3.585079000000000178e+03,2.438857379312562301e-01,1.616605808012693823e-01
3.587007000000000062e+03,2.413403825088433763e-01,8.667014871203265747e-02
3.588935999999999694e+03,2.387821528383220482e-01,7.410321528842528371e-02
3.590864000000000033e+03,2.362137013091860638e-01,1.001553574047002182e-01
3.592792999999999665e+03,2.336323635526316167e-01,1.014754649655416618e-01
3.594720999999999549e+03,2.310408159167725017e-01,9.675144876169911035e-02
3.596650000000000091e+03,2.284363700741849357e-01,1.065511415753956359e-01
3.598577999999999975e+03,2.258217263316026902e-01,9.772794748014007604e-02
3.600507000000000062e+03,2.231941724029837815e-01,9.021561324473298393e-02
3.602434999999999945e+03,2.205564325536766290e-01,1.008521415376560371e-01
3.604364000000000033e+03,2.179057705390263777e-01,1.138480039250929221e-01
3.606291999999999916e+03,2.152449345829960947e-01,9.822011667515867517e-02
3.608220999999999549e+03,2.125711644823145008e-01,6.774449255403219849e-02
3.610149000000000342e+03,2.098872324195575345e-01,5.270307512937061345e-02
3.612077999999999975e+03,2.071903542328445980e-01,3.252241370750946770e-02
3.614005999999999858e+03,2.044833260633662775e-01,1.650418558621430387e-02
3.615934999999999945e+03,2.017633397906202219e-01,2.336965182168165844e-02
3.617862999999999829e+03,1.990332155144187709e-01,6.987474140753680008e-03
