wavenumber (/cm),baseline value (/cm),baseline-subtracted absorbance (/cm),
3.290019000000000233e+03,2.373261882572261783e-01,-3.552713678800500929e-15
3.291947000000000116e+03,2.368485983870201039e-01,-1.032669717546319532e-02
3.293875000000000000e+03,2.363641025346776559e-01,-1.153185649553556402e-02
3.295804000000000087e+03,2.358724440318304971e-01,-9.193040490357518024e-03
3.297731999999999971e+03,2.353741326332770001e-01,-6.144868886771348571e-03
3.299660999999999603e+03,2.348686514184787910e-01,-2.798753934788678066e-03
3.301589000000000397e+03,2.343565244737106923e-01,-1.105456734416687681e-02
3.303518000000000029e+03,2.338372205469614329e-01,-1.674215996914174553e-02
3.305447000000000116e+03,2.333110034723357984e-01,-1.217400440430260744e-02
3.307375000000000000e+03,2.327781514172801991e-01,-5.765103886991695958e-03
3.309302999999999884e+03,2.322383933800900024e-01,2.471611399483819582e-04
3.311231999999999971e+03,2.316914440294368660e-01,-5.618750646398495974e-03
3.313159999999999854e+03,2.311378704460356204e-01,-1.035967846094720812e-02
3.315089000000000397e+03,2.305770983834296572e-01,-1.144755504699102033e-02
3.317017000000000280e+03,2.300097092538173627e-01,-4.032076448598154172e-03
3.318945999999999913e+03,2.294351144792585728e-01,-7.329802270499286010e-03
3.320875000000000000e+03,2.288536065568269606e-01,-1.621707347201795102e-02
3.322802999999999884e+03,2.282654923169253891e-01,-1.886101887796964860e-02
3.324730999999999767e+03,2.276704720948874439e-01,-1.399293248631394704e-02
3.326659999999999854e+03,2.270682318964265534e-01,-8.033749137806189822e-03
3.328587999999999738e+03,2.264593961281775591e-01,-5.396954376082341298e-03
3.330517000000000280e+03,2.258433332177638420e-01,-8.752000505741541758e-03
3.332445000000000164e+03,2.252206819033020224e-01,-1.160744797972235176e-02
3.334374000000000251e+03,2.245907962809390312e-01,-1.536898826602772772e-02
3.336302000000000135e+03,2.239543294202643864e-01,-2.238769381914629264e-02
3.338230999999999767e+03,2.233106210859485685e-01,-1.934603581101868031e-02
3.340159000000000106e+03,2.226603386790628747e-01,-1.483088853926783912e-02
3.342087999999999738e+03,2.220028076327960065e-01,-1.390215525628146764e-02
3.344015999999999622e+03,2.213387096796992637e-01,-1.131634248491852901e-02
3.345945000000000164e+03,2.206673559214795688e-01,-1.579969515726808993e-02
3.347873000000000047e+03,2.199894424221717770e-01,-2.313669312114630117e-02
3.349802000000000135e+03,2.193042659519992554e-01,-2.057080835647262518e-02
3.351730000000000018e+03,2.186125369064786383e-01,-1.093406533145557802e-02
3.353659000000000106e+03,2.179135377243568428e-01,-9.901422160516482052e-03
3.355586999999999989e+03,2.172079931326234004e-01,-7.135299749585044538e-03
3.357515999999999622e+03,2.164951712385487781e-01,-3.596755581511956734e-03
3.359444000000000415e+03,2.157758111006025104e-01,3.171998778240592287e-03
3.361373000000000047e+03,2.150491664945786141e-01,5.795195108403206063e-03
3.363302000000000135e+03,2.143156087406765664e-01,-1.599858507685070208e-03
3.365230000000000018e+03,2.135755234924427981e-01,-4.619325915555805295e-03
3.367157999999999902e+03,2.128285322620726561e-01,-1.313154815661299324e-03
3.369086999999999989e+03,2.120742422321448828e-01,-5.413478019656636775e-03
3.371014999999999873e+03,2.113134354555636918e-01,-2.416883731426899828e-03
3.372944000000000415e+03,2.105453227136813155e-01,-5.326310598118055850e-03
3.374872000000000298e+03,2.097707003908890755e-01,-1.550508995286392633e-02
3.376800999999999931e+03,2.089887649370556488e-01,-1.910898860900367424e-02
3.378729000000000269e+03,2.082003270680505835e-01,-2.294310432806945244e-02
3.380657999999999902e+03,2.074045689022661065e-01,-1.824333870655348022e-02
3.382585999999999785e+03,2.066023154870517686e-01,-1.546997625126422804e-02
3.384514999999999873e+03,2.057927346093144649e-01,-2.585331242851385269e-02
3.386442999999999756e+03,2.049766656478855253e-01,-2.599716890976822015e-02
3.388372000000000298e+03,2.041532620581989477e-01,-3.034804304608318404e-02
3.390300000000000182e+03,2.033233775505571828e-01,-2.973437475465878777e-02
3.392229000000000269e+03,2.024861512489177784e-01,-2.958027986028799461e-02
3.394157000000000153e+03,2.016424511950649645e-01,-2.624077365545662843e-02
3.396085999999999785e+03,2.007914021814745098e-01,-2.273455222807196918e-02
3.398014000000000124e+03,1.999338865814088706e-01,-1.827125843602139810e-02
3.399942999999999756e+03,1.990690148558655892e-01,-2.098700180833468210e-02
3.401870999999999640e+03,1.981976837095889010e-01,-2.207373217184471770e-02
3.403800000000000182e+03,1.973189892720945693e-01,-2.117360250601851845e-02
3.405728000000000065e+03,1.964338425796050558e-01,-2.322974192722870868e-02
3.407657000000000153e+03,1.955413254301596737e-01,-1.423470846837027182e-02
3.409585000000000036e+03,1.946423631914591112e-01,-9.871626937964173010e-03
3.411514000000000124e+03,1.937360233300609025e-01,-2.369781270564352837e-02
3.413442000000000007e+03,1.928232455451492910e-01,-2.159304983219456631e-02
3.415370999999999640e+03,1.919030829717982556e-01,-1.353775212370944558e-02
3.417299000000000433e+03,1.909764896406755952e-01,-1.167266857823445747e-02
3.419228000000000065e+03,1.900425043553735094e-01,-9.359372948104294210e-03
3.421155999999999949e+03,1.891020954780380237e-01,-7.193428190059414362e-03
3.423085000000000036e+03,1.881542874807848875e-01,-1.499958105021548249e-02
3.425012999999999920e+03,1.872000630572365765e-01,-1.308263528463626812e-02
3.426942000000000007e+03,1.862384323480323900e-01,-5.761265526037284701e-03
3.428869999999999891e+03,1.852703923782712536e-01,-5.241501418345784202e-03
3.430799000000000433e+03,1.842949389571142405e-01,-5.434733924495560586e-03
3.432727000000000317e+03,1.833130834411420551e-01,-2.754835538066657818e-03
3.434655999999999949e+03,1.823238073080339916e-01,-1.235270495358875564e-03
3.436584000000000287e+03,1.813281362458489809e-01,-1.027501415824438880e-02
3.438512999999999920e+03,1.803250374007898671e-01,-1.338654718643805808e-02
3.440440999999999804e+03,1.793155507923938075e-01,2.315135132908707760e-04
3.442369999999999891e+03,1.782986292353818669e-01,5.594194622959847152e-03
3.444297999999999774e+03,1.772753270807729820e-01,1.804822033858677344e-03
3.446227000000000317e+03,1.762445828118099911e-01,4.898661969043871522e-05
3.448155000000000200e+03,1.752074651109918335e-01,1.275339229814154152e-02
3.450084000000000287e+03,1.741628981300760159e-01,1.685574119890809186e-02
3.452012000000000171e+03,1.731119648830450330e-01,1.562335664538050395e-02
3.453940999999999804e+03,1.720535751901781651e-01,9.806629842439740230e-03
3.455869000000000142e+03,1.709888263969343569e-01,8.510707619842072802e-03
3.457797999999999774e+03,1.699166139921164387e-01,9.691028132766454917e-03
3.459725999999999658e+03,1.688380496526598051e-01,1.244899601369553466e-02
3.461655000000000200e+03,1.677520145358890602e-01,7.349569807074018968e-03
3.463583000000000084e+03,1.666596346502213777e-01,1.689208948770914986e-02
3.465512000000000171e+03,1.655597768214995824e-01,2.518952420366282752e-02
3.467440000000000055e+03,1.644535813896190746e-01,2.422209428605714976e-02
3.469369000000000142e+03,1.633399008489462290e-01,3.162654835888289995e-02
3.471297000000000025e+03,1.622198898708546722e-01,3.502521730528673771e-02
3.473225999999999658e+03,1.610923866182307762e-01,4.167834963526395597e-02
3.475154000000000451e+03,1.599585600939246177e-01,5.136762816329820680e-02
3.477083000000000084e+03,1.588172341293496714e-01,7.051920575881442943e-02
3.479010999999999967e+03,1.576695920588342403e-01,6.738539396166931539e-02
3.480940000000000055e+03,1.565144433823046910e-01,6.158154916196423301e-02
3.482867999999999938e+03,1.553529857655782109e-01,7.825838422510145165e-02
3.484797000000000025e+03,1.541840143770976113e-01,7.639100892206407423e-02
3.486724999999999909e+03,1.530087412141583059e-01,6.914316931706299130e-02
3.488654000000000451e+03,1.518259471137266559e-01,6.566706313790415805e-02
3.490582000000000335e+03,1.506368584045745251e-01,6.680768959169736121e-02
3.492510999999999967e+03,1.494402415921918248e-01,7.159703706577680293e-02
3.494439000000000306e+03,1.482373373368268687e-01,7.740199164732963766e-02
3.496367999999999938e+03,1.470268978124931181e-01,7.760031560782465476e-02
3.498295999999999822e+03,1.458101780109171131e-01,7.556074463586615053e-02
3.500224999999999909e+03,1.445859157746305357e-01,7.838146539964707671e-02
3.502152999999999793e+03,1.433553804268434817e-01,7.998105946132039179e-02
3.504082000000000335e+03,1.421172954786040776e-01,8.194048644124674041e-02
3.506010000000000218e+03,1.408729445846041983e-01,9.030319707429601550e-02
3.507939000000000306e+03,1.396210369244137439e-01,8.665109727875464074e-02
3.509867000000000189e+03,1.383628704842028156e-01,9.457189186435144279e-02
3.511795999999999822e+03,1.370971401120613109e-01,1.081228039699517751e-01
3.513724000000000160e+03,1.358251581256393337e-01,1.204628195071668628e-01
3.515652999999999793e+03,1.345456050415450022e-01,1.303565384812879202e-01
3.517580999999999676e+03,1.332598075089101997e-01,1.432443863401120510e-01
3.519510000000000218e+03,1.319664317128648179e-01,1.595610612973867859e-01
3.521438000000000102e+03,1.306668186340171900e-01,1.712548961842497164e-01
3.523367000000000189e+03,1.293596201260207579e-01,1.664306874229080080e-01
3.525295000000000073e+03,1.280461915009603047e-01,1.618606118541183747e-01
3.527224000000000160e+03,1.267251702810128222e-01,1.530278586099473870e-01
3.529152000000000044e+03,1.253979261097413200e-01,1.473998371707807564e-01
3.531080999999999676e+03,1.240630821778410109e-01,1.522211675891673721e-01
3.533009000000000015e+03,1.227220224603566834e-01,1.555333363467257257e-01
3.534938000000000102e+03,1.213733558165053239e-01,1.428195612384808300e-01
3.536865999999999985e+03,1.200184805528099474e-01,1.343477822617291650e-01
3.538795000000000073e+03,1.186559911970075376e-01,1.430318000425074842e-01
3.540722999999999956e+03,1.172873003870993358e-01,1.460901460248296146e-01
3.542652000000000044e+03,1.159109883193440993e-01,1.312129632184007022e-01
3.544579999999999927e+03,1.145284819632248485e-01,1.127660194347246403e-01
3.546509000000000015e+03,1.131383471835185617e-01,1.089520535620547292e-01
3.548436999999999898e+03,1.117420252811882619e-01,1.186512645603778893e-01
3.550365999999999985e+03,1.103380677895273720e-01,1.216460887808361591e-01
3.552294000000000324e+03,1.089279303409860233e-01,1.224886586618101347e-01
3.554222999999999956e+03,1.075101501373758595e-01,1.350257305709181566e-01
3.556150999999999840e+03,1.060861971426216854e-01,1.528709324007140324e-01
3.558079999999999927e+03,1.046545942270586949e-01,1.739418643004340126e-01
3.560007999999999811e+03,1.032168256860916955e-01,1.948623914620908337e-01
3.561936999999999898e+03,1.017714000585776546e-01,2.087467732871814974e-01
3.563864999999999782e+03,1.003198159713996063e-01,2.062719827238481685e-01
3.565794000000000324e+03,9.886056763193273866e-02,1.858784817622893826e-01
3.567722000000000207e+03,9.739516799854186502e-02,2.103047388048135957e-01
3.569650999999999840e+03,9.592209694712572343e-02,2.725858247676926638e-01
3.571579000000000178e+03,9.444288176752202446e-02,3.039746392017228516e-01
3.573507999999999811e+03,9.295598800415483254e-02,3.008119523499930281e-01
3.575435999999999694e+03,9.146295727833830824e-02,2.603450576331240995e-01
3.577364999999999782e+03,8.996224080301828963e-02,2.028998281624989630e-01
3.579292999999999665e+03,8.845539453099249272e-02,1.627934405109456861e-01
3.581222000000000207e+03,8.694085534371964741e-02,1.283564419535778711e-01
3.583150000000000091e+03,8.542019352548102518e-02,8.883889314739867871e-02
3.585079000000000178e+03,8.389183162625890589e-02,5.491991115100081089e-02
3.587007000000000062e+03,8.235735426180745833e-02,3.788029718274010804e-02
3.588935999999999694e+03,8.081516965063251234e-02,4.474587415179076544e-02
3.590864000000000033e+03,7.926687673996823946e-02,5.402762465798183200e-02
3.592792999999999665e+03,7.771086941684224314e-02,4.676443347225411884e-02
3.594720999999999549e+03,7.614876095996692129e-02,3.791461275857965774e-02
3.596650000000000091e+03,7.457893092488809828e-02,5.459441483466509482e-02
3.598577999999999975e+03,7.300300692180172746e-02,5.940799028229992729e-02
3.600507000000000062e+03,7.141935417477185410e-02,5.433087881684084408e-02
3.602434999999999945e+03,6.982961462547265796e-02,5.207718872960587220e-02
3.604364000000000033e+03,6.823213916648995792e-02,5.286944517647373942e-02
3.606291999999999916e+03,6.662858407097971281e-02,2.586908601289739096e-02
3.608220999999999549e+03,6.501728590004596242e-02,5.910020716916264405e-03
3.610149000000000342e+03,6.339991525832466834e-02,2.401853767736916723e-02
3.612077999999999975e+03,6.177479437543809127e-02,1.358028484170947792e-02
3.614005999999999858e+03,6.014360818750397186e-02,1.621053906319502858e-02
3.615934999999999945e+03,5.850466459266634445e-02,3.545153298422132337e-02
3.617862999999999829e+03,5.685966285852117608e-02,1.831834273327714868e-02
