449.3401,-0.02613035
451.2686,0.01400765
453.1971,0.0406118
455.1256,0.1007546
457.0541,0.05346935
458.9826,-0.03755775
460.9111,-0.0462504
462.8396,0.0589193
464.7681,0.05410035
466.6966,0.009783
468.6251,-0.04977305
470.5536,-0.02515915
472.4821,-0.03210805
474.4106,0.05605115
476.3391,0.11074645
478.2676,0.11816385
480.1961,0.092736
482.1246,0.09362785
484.0531,0.0697421
485.9816,0.1090338
487.9101,0.1114861
489.8386,0.14169215
491.7671,0.14295115
493.6956,0.12466575
495.6241,0.11158425
497.5526,0.126659775
499.4811,0.14774232
501.4096,0.13293605
503.3381,0.0885787
505.2666,0.13830797
507.1951,0.15009805
509.1236,0.15918508
511.0521,0.167566785
512.9806,0.17094301
514.9091,0.168525755
516.8376,0.1405118
518.7661,0.13417334
520.6946,0.197255545
522.6231,0.22378132
524.5516,0.231258245
526.4801,0.2015808695
528.4086,0.244952195
530.3371,0.26719265
532.2656,0.25696285
534.1941,0.27594625
536.1226,0.32027425
538.0511,0.35460735
539.9796,0.35119765
541.9081,0.35520215
543.8365,0.3965828
545.7651,0.45213955
547.6935,0.48861015
549.6221,0.4737226
551.5506,0.49148665
553.4791,0.5464573
555.4076,0.56925775
557.3361,0.5587142
559.2646,0.59725185
561.1931,0.63789255
563.1216,0.66014825
565.05,0.7231647
566.9786,0.7879479
568.907,0.84925325
570.8356,0.89700035
572.764,0.94091855
574.6926,0.9569998
576.621,1.01976985
578.5496,1.07627815
580.478,1.09852785
582.4066,1.126115
584.335,1.184383
586.2635,1.236023
588.192,1.2819925
590.1205,1.3111125
592.049,1.3429285
593.9775,1.3847345
595.906,1.418871
597.8345,1.4350645
599.7631,1.4375345
601.6915,1.4494425
603.6201,1.464894
605.5485,1.448795
607.4771,1.470879
609.4055,1.5361475
611.334,1.59438
613.2625,1.6219405
615.191,1.6332595
617.1195,1.6263455
619.048,1.610534
620.9765,1.6234145
622.905,1.636266
624.8335,1.6549725
626.762,1.678
628.6905,1.699892
630.619,1.6964805
632.5475,1.695655
634.476,1.7340125
636.4045,1.7446665
638.333,1.7525665
640.2615,1.736893
642.19,1.722771
644.1185,1.754557
646.047,1.782892
647.9755,1.766529
649.904,1.761965
651.8325,1.8085715
653.761,1.8641135
655.6895,1.846944
657.618,1.831952
659.5465,1.8456025
661.475,1.880246
663.4035,1.878012
665.332,1.8651075
667.2605,1.758019
669.189,1.8042935
671.1175,1.910958
673.046,1.9063455
674.9745,1.904836
676.903,1.927648
678.8315,1.965385
680.7599,1.959475
682.6885,1.926558
684.6169,1.9466215
686.5455,2.001147
688.4739,2.016465
690.4025,1.9959735
692.3309,1.9489025
694.2595,1.941466
696.188,1.986355
698.1165,2.00182
700.045,1.994161
701.9734,1.9930155
703.902,2.037212
705.8304,2.0833715
707.759,2.0735895
709.6874,2.0870935
711.616,2.0784385
713.5444,2.0500625
715.473,2.034491
717.4014,2.0214245
719.33,2.001876
721.2584,2.0179515
723.187,2.051767
725.1154,2.0400845
727.0439,2.0605775
728.9724,2.1084525
730.9009,2.0972595
732.8294,2.0820345
734.7579,2.100231
736.6864,2.1076745
738.6149,2.0683605
740.5434,2.0421515
742.4719,2.107643
744.4004,2.123139
746.3289,2.0960495
748.2574,2.086693
750.1859,2.0947215
752.1144,2.1022395
754.0429,2.109101
755.9714,2.1050225
757.8999,2.0877715
759.8284,2.100232
761.7569,2.1348345
763.6854,2.126401
765.6139,2.11187
767.5424,2.1160735
769.4709,2.1260385
771.3994,2.0944695
773.3279,2.091301
775.2564,2.125166
777.1849,2.110005
779.1134,2.0983525
781.0419,2.095774
782.9704,2.1058625
784.8989,2.136988
786.8274,2.1309505
788.7559,2.1282065
790.6844,2.127462
792.6129,2.116394
794.5414,2.1194375
796.4699,2.1265365
798.3984,2.121877
800.3269,2.1375005
802.2554,2.1452985
804.1839,2.1415585
806.1124,2.101003
808.0409,2.0965475
809.9694,2.1409785
811.8979,2.138536
813.8264,2.103431
815.7549,2.1163655
817.6833,2.113939
819.6119,2.1107345
821.5403,2.150402
823.4689,2.1644515
825.3973,2.138175
827.3259,2.1420335
829.2543,2.1581565
831.1829,2.15517
833.1113,2.174368
835.0399,2.1951465
836.9683,2.209939
838.8969,2.1979725
840.8253,2.205633
842.7538,2.207968
844.6824,2.2197345
846.6108,2.246027
848.5394,2.2291215
850.4678,2.228984
852.3964,2.1844765
854.3248,2.1395355
856.2534,2.1503365
858.1818,2.1904335
860.1104,2.2254415
862.0388,2.2311255
863.9673,2.208627
865.8958,2.219146
867.8243,2.228484
869.7528,2.2088375
871.6813,2.1892885
873.6098,2.173782
875.5383,2.1991805
877.4668,2.218507
879.3953,2.222661
881.3238,2.2175745
883.2523,2.225396
885.1808,2.222917
887.1093,2.211987
889.0378,2.2214895
890.9663,2.2344355
892.8948,2.240666
894.8233,2.2391365
896.7518,2.2304635
898.6803,2.211673
900.6088,2.234126
902.5373,2.2610875
904.4658,2.2552045
906.3943,2.2420025
908.3228,2.268605
910.2513,2.281195
912.1798,2.272118
914.1083,2.222983
916.0368,2.2276445
917.9653,2.220635
919.8938,2.215535
921.8223,2.258409
923.7508,2.295935
925.6793,2.2781755
927.6078,2.245306
929.5363,2.262256
931.4648,2.284243
933.3932,2.2576745
935.3218,2.2387855
937.2502,2.237865
939.1788,2.2689645
941.1072,2.279681
943.0358,2.2612115
944.9643,2.225653
946.8928,2.242575
948.8213,2.2562925
950.7498,2.2723365
952.6783,2.2961575
954.6068,2.292728
956.5353,2.267397
958.4637,2.24625
960.3923,2.261138
962.3207,2.262032
964.2493,2.273617
966.1777,2.3066185
968.1063,2.3117425
970.0347,2.313174
971.9633,2.3151805
973.8917,2.3299235
975.8203,2.336571
977.7487,2.3283705
979.6772,2.2792625
981.6057,2.3034605
983.5342,2.3511575
985.4627,2.357949
987.3912,2.3034925
989.3197,2.3063645
991.2482,2.3362935
993.1768,2.288349
995.1052,2.312403
997.0338,2.370549
998.9622,2.3306805
1000.891,2.31122
1002.819,2.321557
1004.748,2.3434345
1006.676,2.318677
1008.605,2.2777955
1010.533,2.27018
1012.462,2.2928075
1014.39,2.2878405
1016.319,2.28653
1018.247,2.3009935
1020.176,2.3405925
1022.104,2.358832
1024.033,2.368589
1025.961,2.3488285
1027.89,2.31465
1029.818,2.2856575
1031.747,2.3189895
1033.675,2.338449
1035.604,2.299074
1037.532,2.316955
1039.461,2.3409035
1041.389,2.3757945
1043.318,2.396171
1045.246,2.3279005
1047.175,2.304441
1049.103,2.2776405
1051.032,2.3251705
1052.96,2.3544055
1054.889,2.297776
1056.817,2.2824705
1058.746,2.3131815
1060.674,2.30835
1062.603,2.34746
1064.531,2.400278
1066.46,2.403001
1068.388,2.386532
1070.317,2.3437405
1072.245,2.319801
1074.174,2.337982
1076.102,2.3409105
1078.031,2.3780105
1079.959,2.3715735
1081.888,2.379087
1083.816,2.4029575
1085.745,2.3831605
1087.673,2.3613445
1089.602,2.379699
1091.53,2.397883
1093.459,2.3819855
1095.387,2.3628275
1097.316,2.3702655
1099.244,2.3384725
1101.173,2.3417565
1103.101,2.3555045
1105.03,2.363588
1106.958,2.3842115
1108.887,2.4172575
1110.815,2.4440245
1112.744,2.4124905
1114.672,2.3651535
1116.601,2.382821
1118.529,2.462668
1120.458,2.470357
1122.386,2.3945595
1124.315,2.400777
1126.243,2.4284855
1128.172,2.4010515
1130.1,2.3803515
1132.029,2.411353
1133.957,2.421306
1135.886,2.4159505
1137.814,2.4165715
1139.743,2.39065
1141.671,2.38146
1143.6,2.4366885
1145.528,2.442948
1147.457,2.4094045
1149.385,2.4063305
1151.314,2.3951585
1153.242,2.38951
1155.171,2.4362255
1157.099,2.446919
1159.028,2.4214285
1160.956,2.4464175
1162.885,2.4478955
1164.813,2.4112535
1166.742,2.4444895
1168.67,2.4884665
1170.599,2.475175
1172.527,2.4671365
1174.456,2.428863
1176.384,2.4076445
1178.313,2.4228455
1180.241,2.441183
1182.17,2.438121
1184.098,2.4201625
1186.027,2.410201
1187.955,2.4006545
1189.884,2.3996945
1191.812,2.3924535
1193.741,2.407941
1195.669,2.4324745
1197.598,2.44065
1199.526,2.4112945
1201.455,2.40862
1203.383,2.422609
1205.312,2.427067
1207.24,2.444898
1209.169,2.4360385
1211.097,2.4223895
1213.026,2.4380435
1214.954,2.4215505
1216.883,2.411706
1218.811,2.4363065
1220.74,2.4803515
1222.668,2.459741
1224.597,2.428186
1226.525,2.420428
1228.453,2.4149805
1230.382,2.4057205
1232.311,2.443428
1234.239,2.4713935
1236.167,2.484343
1238.096,2.503158
1240.025,2.499199
1241.953,2.493765
1243.882,2.4967815
1245.81,2.5256375
1247.739,2.524796
1249.667,2.4879605
1251.596,2.453777
1253.524,2.428432
1255.453,2.4629895
1257.381,2.445451
1259.31,2.3921775
1261.238,2.3671265
1263.167,2.411204
1265.095,2.4365335
1267.024,2.440129
1268.952,2.4432575
1270.88,2.464567
1272.809,2.4576745
1274.738,2.478592
1276.666,2.4701205
1278.594,2.479389
1280.523,2.50472
1282.452,2.523392
1284.38,2.5315755
1286.308,2.56649
1288.237,2.518401
1290.166,2.496085
1292.094,2.490646
1294.022,2.470961
1295.951,2.448983
1297.88,2.4650625
1299.808,2.497065
1301.736,2.471829
1303.665,2.433956
1305.594,2.4644215
1307.522,2.457879
1309.45,2.4919895
1311.379,2.5007335
1313.307,2.484579
1315.236,2.477531
1317.164,2.500241
1319.093,2.483391
1321.021,2.5060715
1322.95,2.5063395
1324.878,2.495037
1326.807,2.511344
1328.735,2.5371015
1330.664,2.5372495
1332.592,2.524972
1334.521,2.4841055
1336.449,2.509354
1338.378,2.4929745
1340.307,2.4904395
1342.235,2.522577
1344.163,2.551667
1346.092,2.535063
1348.021,2.546929
1349.949,2.553512
1351.877,2.527742
1353.806,2.485148
1355.734,2.494918
1357.663,2.4935645
1359.591,2.467263
1361.52,2.4258605
1363.448,2.4441695
1365.377,2.4866665
1367.305,2.4828055
1369.234,2.452611
1371.162,2.45385
1373.091,2.4253445
1375.019,2.4065245
1376.948,2.380221
1378.876,2.387752
1380.805,2.391813
1382.733,2.3954925
1384.662,2.3956735
1386.59,2.377512
1388.519,2.320864
1390.447,2.3208145
1392.376,2.277798
1394.304,2.223641
1396.233,2.2226115
1398.161,2.2532015
1400.09,2.292427
1402.018,2.2972845
1403.947,2.2580975
1405.875,2.286007
1407.804,2.295657
1409.732,2.2836275
1411.661,2.2742075
1413.589,2.2863155
1415.518,2.293955
1417.446,2.294925
1419.375,2.20614
1421.303,2.1969295
1423.232,2.194338
1425.16,2.2097155
1427.089,2.1868575
1429.017,2.153163
1430.946,2.1418785
1432.874,2.1649805
1434.803,2.187906
1436.731,2.1399285
1438.66,2.1299435
1440.588,2.1291685
1442.517,2.0989685
1444.445,2.1175065
1446.374,2.0819865
1448.302,2.052309
1450.231,2.067221
1452.159,2.072514
1454.088,2.0690865
1456.016,2.0655535
1457.945,2.064955
1459.873,2.066752
1461.802,2.0675225
1463.73,2.0741785
1465.659,2.0514885
1467.587,2.075094
1469.516,2.061158
1471.444,2.00825
1473.373,1.9522995
1475.301,1.9360275
1477.23,1.920448
1479.158,1.871957
1481.087,1.8039055
1483.015,1.765979
1484.944,1.7426465
1486.872,1.693594
1488.801,1.633915
1490.729,1.5804475
1492.658,1.5503573
1494.586,1.524346
1496.515,1.47843265
1498.443,1.44035375
1500.372,1.39547035
1502.3,1.36650855
1504.229,1.3387601
1506.157,1.30005255
1508.086,1.2667533
1510.014,1.27148845
1511.943,1.2625458
1513.871,1.2548961
1515.8,1.24733605
1517.728,1.2521367
1519.657,1.25596815
1521.585,1.25506425
1523.514,1.2521835
1525.442,1.250836
1527.371,1.2449668
1529.299,1.25113165
1531.228,1.25760705
1533.156,1.2540833
1535.085,1.2500706
1537.013,1.2479651
1538.942,1.2254206
1540.87,1.20459345
1542.799,1.2077804
1544.727,1.1960166
1546.656,1.1889719
1548.584,1.18558235
1550.513,1.1744077
1552.441,1.1637358
1554.37,1.14793305
1556.298,1.1381689
1558.227,1.1186133
1560.155,1.10727135
1562.084,1.1098027
1564.012,1.10422185
1565.941,1.099966
1567.869,1.10101305
1569.798,1.09558615
1571.726,1.0898137
1573.655,1.08644215
1575.583,1.083319
1577.512,1.0797497
1579.44,1.0780856
1581.369,1.07791605
1583.297,1.0788418
1585.226,1.0814463
1587.154,1.0853037
1589.083,1.08720285
1591.011,1.08484545
1592.94,1.08848575
1594.868,1.09829035
1596.797,1.10637255
1598.725,1.1144742
1600.654,1.12978785
1602.582,1.1471365
1604.511,1.16965445
1606.439,1.18979715
1608.368,1.2093753
1610.296,1.2364595
1612.225,1.26580865
1614.153,1.2933553
1616.082,1.33592695
1618.01,1.38316495
1619.939,1.41280025
1621.867,1.4442441
1623.796,1.50501145
1625.724,1.5839775
1627.653,1.6711205
1629.581,1.7471935
1631.51,1.8148415
1633.438,1.9049415
1635.367,2.0665515
1637.295,2.115716
1639.224,2.212419
1641.152,2.3887455
1643.081,2.5190505
1645.009,2.606879
1646.938,2.7591375
1648.866,2.664155
1650.795,2.7971
1652.723,4.354028
1654.652,4.3488725
1656.58,2.860221
1658.509,2.8617315
1660.437,2.80473
1662.366,2.8337255
1664.294,2.7586455
1666.223,2.8951055
1668.151,3.0119905
1670.08,3.0575515
1672.008,2.8699175
1673.937,2.87969
1675.865,2.9409075
1677.794,3.14557
1679.722,3.2898035
1681.651,4.3675925
1683.579,3.0722365
1685.508,2.9150445
1687.436,2.8687195
1689.365,2.96209
1691.293,2.9030485
1693.222,2.931219
1695.15,2.9255045
1697.079,3.009397
1699.007,2.948377
1700.936,4.308728
1702.864,2.802306
1704.793,2.7432725
1706.721,2.8042295
1708.65,2.89313
1710.578,2.807045
1712.507,2.8760705
1714.435,2.9556415
1716.364,2.865436
1718.292,2.697714
1720.221,2.7631275
1722.149,2.754038
1724.078,2.710787
1726.006,2.675492
1727.935,2.592627
1729.863,2.530803
1731.792,2.5039315
1733.72,2.4532735
1735.649,2.3661875
1737.577,2.3551265
1739.506,2.340161
1741.434,2.291921
1743.363,2.253775
1745.291,2.282109
1747.22,2.308088
1749.148,2.304955
1751.077,2.2992215
1753.005,2.3142795
1754.934,2.36826
1756.862,2.435258
1758.791,2.4900805
1760.719,2.5148645
1762.648,2.513043
1764.576,2.5158225
1766.505,2.5657945
1768.433,2.577377
1770.362,2.602114
1772.29,2.6134185
1774.219,2.6400575
1776.147,2.652027
1778.076,2.739389
1780.004,2.8868715
1781.933,3.1179655
1783.861,3.0252515
1785.79,2.873409
1787.718,2.7877245
1789.647,2.6909015
1791.575,2.660145
1793.504,2.595998
1795.432,2.487552
1797.361,2.4041075
1799.289,2.3036285
1801.218,2.2847005
1803.146,2.2591625
1805.075,2.1980965
1807.003,2.168915
1808.932,2.160993
1810.86,2.1922925
1812.789,2.182796
1814.717,2.1663315
1816.646,2.1665885
1818.574,2.1615585
1820.503,2.205022
1822.431,2.2372895
1824.36,2.2432485
1826.288,2.265394
1828.217,2.248417
1830.145,2.239247
1832.074,2.2906385
1834.002,2.3251065
1835.931,2.3174655
1837.859,2.2810115
1839.788,2.233902
1841.716,2.2181565
1843.645,2.1911035
1845.573,2.185209
1847.502,2.1941095
1849.43,2.1793555
1851.359,2.1422145
1853.287,2.1236945
1855.216,2.106256
1857.144,2.0746565
1859.073,2.0413315
1861.001,2.0040925
1862.93,1.9687
1864.858,1.952735
1866.786,1.942261
1868.715,1.9011175
1870.644,1.8737865
1872.572,1.860237
1874.5,1.828255
1876.429,1.791671
1878.358,1.761129
1880.286,1.727134
1882.215,1.690752
1884.143,1.66079
1886.072,1.6386405
1888.0,1.627759
1889.929,1.613914
1891.857,1.5923275
1893.786,1.5709575
1895.714,1.5432555
1897.643,1.52107305
1899.571,1.49128805
1901.5,1.46465115
1903.428,1.43997275
1905.357,1.41164955
1907.285,1.3872734
1909.214,1.371979
1911.142,1.3519656
1913.071,1.3316775
1914.999,1.3223132
1916.927,1.31167815
1918.856,1.2992214
1920.785,1.28640475
1922.713,1.26829955
1924.641,1.2514214
1926.57,1.2343319
1928.499,1.2070064
1930.427,1.16703245
1932.355,1.1190204
1934.284,1.0723017
1936.213,1.0237165
1938.141,0.97715935
1940.069,0.9339946
1941.998,0.89225145
1943.927,0.8503525
1945.855,0.81649205
1947.783,0.78523885
1949.712,0.75655705
1951.641,0.72941855
1953.569,0.70531245
1955.497,0.68236735
1957.426,0.66176965
1959.354,0.6433199
1961.283,0.6270729
1963.211,0.61144535
1965.14,0.5967951
1967.068,0.583172
1968.997,0.5719719
1970.925,0.5616858
1972.854,0.5515979
1974.782,0.5423113
1976.711,0.534204
1978.639,0.5268847
1980.568,0.52102675
1982.496,0.51536215
1984.425,0.5104464
1986.354,0.50517545
1988.282,0.49971175
1990.21,0.4949503
1992.139,0.49087005
1994.068,0.48615955
1995.996,0.48211835
1997.924,0.4774607
1999.853,0.47296975
2001.781,0.4694062
2003.71,0.46558605
2005.638,0.4612937
2007.567,0.4579114
2009.495,0.45430555
2011.424,0.45108465
2013.352,0.4476231
2015.281,0.44434975
2017.209,0.4409023
2019.138,0.4375136
2021.066,0.4331096
2022.995,0.4280623
2024.923,0.42336395
2026.852,0.4188502
2028.78,0.413945375
2030.709,0.408827895
2032.637,0.40341867
2034.566,0.39818306
2036.494,0.392357305
2038.423,0.387246475
2040.351,0.382086215
2042.28,0.376761925
2044.208,0.37116081
2046.137,0.365878425
2048.065,0.360406185
2049.994,0.35587031
2051.922,0.351534085
2053.851,0.34723684
2055.779,0.34288966
2057.708,0.339202355
2059.636,0.3356529
2061.565,0.33259024
2063.493,0.3290956
2065.422,0.32526578
2067.35,0.321715465
2069.279,0.31896527
2071.207,0.31575051
2073.136,0.312593045
2075.064,0.309699235
2076.993,0.30708906
2078.921,0.30441745
2080.85,0.301399175
2082.778,0.29830327
2084.707,0.295968145
2086.635,0.293433565
2088.564,0.290825835
2090.492,0.288138035
2092.421,0.2853374
2094.349,0.282511575
2096.278,0.280224215
2098.206,0.277300145
2100.135,0.274592745
2102.063,0.271773603
2103.992,0.2692234305
2105.92,0.26676938
2107.849,0.2644708215
2109.777,0.2618970287
2111.706,0.2593937879
2113.634,0.2565048675
2115.563,0.254132903
2117.491,0.2517644055
2119.42,0.2500697025
2121.348,0.2479982565
2123.277,0.24587187
2125.205,0.2439425
2127.134,0.24216448
2129.062,0.24028043
2130.991,0.23884308
2132.919,0.23735808
2134.848,0.235870595
2136.776,0.23416863
2138.705,0.232775985
2140.633,0.231439505
2142.562,0.23053084
2144.49,0.229295265
2146.419,0.228097475
2148.347,0.226623755
2150.276,0.22552829
2152.204,0.22428644
2154.133,0.222781435
2156.061,0.220998045
2157.99,0.21945103
2159.918,0.217990395
2161.847,0.21671229
2163.775,0.21417567
2165.704,0.212273835
2167.632,0.210486265
2169.561,0.208440795
2171.489,0.205974
2173.418,0.203629525
2175.346,0.201065245
2177.275,0.198380475
2179.203,0.195385945
2181.132,0.192429725
2183.06,0.189554585
2184.989,0.18696238
2186.917,0.183454065
2188.846,0.17992361
2190.774,0.17657331
2192.703,0.17354903
2194.631,0.170253925
2196.56,0.16681217
2198.488,0.16346535
2200.417,0.16048677
2202.345,0.15701202
2204.274,0.153837065
2206.202,0.150729855
2208.131,0.1479486
2210.059,0.14503316
2211.988,0.142421475
2213.916,0.13962455
2215.845,0.13690459
2217.773,0.134304625
2219.702,0.13184475
2221.63,0.129288205
2223.559,0.1270338
2225.487,0.12450025
2227.416,0.12206815
2229.344,0.119701
2231.273,0.11768975
2233.201,0.115406
2235.13,0.1129626
2237.058,0.11035065
2238.987,0.1081483
2240.915,0.1059432
2242.844,0.1038297
2244.772,0.10140385
2246.701,0.09919945
2248.629,0.09711955
2250.558,0.0951412
2252.486,0.09299765
2254.415,0.09094875
2256.343,0.08874045
2258.272,0.08705205
2260.2,0.0851251
2262.129,0.0831498
2264.057,0.08125535
2265.986,0.07950295
2267.914,0.07745685
2269.843,0.075434
2271.771,0.07330435
2273.7,0.0714708
2275.628,0.0694933
2277.557,0.0676679
2279.485,0.06557085
2281.414,0.06343115
2283.342,0.0611157
2285.271,0.05927055
2287.199,0.05724425
2289.128,0.0550585
2291.056,0.0527688
2292.985,0.0508677
2294.913,0.04872175
2296.842,0.0465429
2298.77,0.04428175
2300.699,0.0423442
2302.627,0.04026015
2304.556,0.0384441
2306.484,0.0364737
2308.413,0.03489655
2310.341,0.0334116
2312.27,0.03157
2314.198,0.02934885
2316.127,0.02745285
2318.055,0.0256386
2319.984,0.0246525
2321.912,0.0236476
2323.841,0.0220946
2325.769,0.0201386
2327.698,0.01907785
2329.626,0.0174003
2331.555,0.01608955
2333.483,0.0142914
2335.412,0.0122441
2337.34,0.01020975
2339.269,0.00882275
2341.197,0.00730215
2343.126,0.00545105
2345.054,0.00307195
2346.983,-8.28e-05
2348.911,-0.0028552
2350.84,-0.00302555
2352.768,-0.00275795
2354.697,-0.0033801
2356.625,-0.00476275
2358.554,-0.00524305
2360.482,-0.00652975
2362.411,-0.00779235
2364.339,-0.01002845
2366.268,-0.01216455
2368.196,-0.01540495
2370.125,-0.0187014
2372.053,-0.02203795
2373.982,-0.02494745
2375.91,-0.02780025
2377.839,-0.0304677
2379.767,-0.0332298
2381.696,-0.03557055
2383.624,-0.0379026
2385.553,-0.03991945
2387.481,-0.0418318
2389.41,-0.04337025
2391.338,-0.0448791
2393.267,-0.04619115
2395.195,-0.04791935
2397.124,-0.0495121
2399.052,-0.0508751
2400.981,-0.05221675
2402.909,-0.05390275
2404.838,-0.05512595
2406.766,-0.0564941
2408.695,-0.05788515
2410.623,-0.05926395
2412.552,-0.0604821
2414.48,-0.0617999
2416.409,-0.0629716
2418.337,-0.0641755
2420.266,-0.0653281
2422.194,-0.066591
2424.123,-0.067596
2426.051,-0.06844845
2427.98,-0.0694308
2429.908,-0.07073225
2431.837,-0.0717219
2433.765,-0.0724222
2435.694,-0.07312875
2437.622,-0.0738188
2439.551,-0.0742092
2441.479,-0.07464095
2443.408,-0.074806
2445.336,-0.07493585
2447.265,-0.07495945
2449.193,-0.0750474
2451.122,-0.0745891
2453.05,-0.0739671
2454.979,-0.07327015
2456.907,-0.07219345
2458.836,-0.07067605
2460.764,-0.06937045
2462.693,-0.06755905
2464.621,-0.06526495
2466.55,-0.06269405
2468.478,-0.05989495
2470.406,-0.0568329
2472.335,-0.0535617
2474.264,-0.04995595
2476.192,-0.0466743
2478.121,-0.04345135
2480.049,-0.0406694
2481.978,-0.0383777
2483.906,-0.03676905
2485.834,-0.0355233
2487.763,-0.03490905
2489.692,-0.03520175
2491.62,-0.0365711
2493.549,-0.03826955
2495.477,-0.0404546
2497.406,-0.04311705
2499.334,-0.04622665
2501.262,-0.04969295
2503.191,-0.05338745
2505.12,-0.05697335
2507.048,-0.06065695
2508.977,-0.0645379
2510.905,-0.06859595
2512.833,-0.0722018
2514.762,-0.07555395
2516.69,-0.0787836
2518.619,-0.08206945
2520.548,-0.085220105
2522.476,-0.08791873
2524.405,-0.090473975
2526.333,-0.092909645
2528.261,-0.095080185
2530.19,-0.097483845
2532.119,-0.09985704
2534.047,-0.101986315
2535.976,-0.10391612
2537.904,-0.10588302
2539.833,-0.10779091
2541.761,-0.109796075
2543.689,-0.11196657
2545.618,-0.114190775
2547.547,-0.116160115
2549.475,-0.118416535
2551.404,-0.12034102
2553.332,-0.122140875
2555.26,-0.12401783
2557.189,-0.12574978
2559.117,-0.12736819
2561.046,-0.128976265
2562.975,-0.130293065
2564.903,-0.131832715
2566.832,-0.13310319
2568.76,-0.1340723
2570.688,-0.134918415
2572.617,-0.13591391
2574.545,-0.136834695
2576.474,-0.137719565
2578.403,-0.138500415
2580.331,-0.139316075
2582.26,-0.14008381
2584.188,-0.140751455
2586.116,-0.14147915
2588.045,-0.14233505
2589.973,-0.142969465
2591.902,-0.143725285
2593.831,-0.144390125
2595.759,-0.145099795
2597.688,-0.14586945
2599.616,-0.14668015
2601.544,-0.147300635
2603.473,-0.14785427
2605.401,-0.14849958
2607.33,-0.14951114
2609.259,-0.15023324
2611.187,-0.150840175
2613.115,-0.1516241205
2615.044,-0.1525202045
2616.972,-0.153355438
2618.901,-0.154226575
2620.829,-0.155110132
2622.758,-0.1558923115
2624.687,-0.156602
2626.615,-0.157443318
2628.543,-0.1582908448
2630.472,-0.1592734127
2632.4,-0.160319946
2634.329,-0.1612523205
2636.258,-0.161975948
2638.186,-0.1628230545
2640.115,-0.1635283315
2642.043,-0.1644315425
2643.971,-0.165372992
2645.9,-0.166252939
2647.828,-0.16727202
2649.757,-0.16824056
2651.686,-0.168957585
2653.614,-0.16992769
2655.542,-0.17099735
2657.471,-0.17187889
2659.399,-0.172884895
2661.328,-0.174085245
2663.256,-0.175058325
2665.185,-0.176052475
2667.114,-0.177252485
2669.042,-0.178372215
2670.97,-0.179482595
2672.899,-0.180485035
2674.827,-0.18166368
2676.756,-0.18315749
2678.684,-0.184314455
2680.613,-0.185442885
2682.542,-0.186764545
2684.47,-0.18801265
2686.398,-0.189203125
2688.327,-0.190517865
2690.255,-0.19164039
2692.184,-0.19290933
2694.112,-0.194181645
2696.041,-0.19542331
2697.969,-0.196631425
2699.898,-0.197885465
2701.826,-0.19925225
2703.755,-0.20048905
2705.683,-0.2018675
2707.612,-0.20354213
2709.54,-0.204867195
2711.469,-0.20605872
2713.397,-0.2070432
2715.326,-0.20822007
2717.254,-0.209511095
2719.183,-0.21066294
2721.111,-0.21179685
2723.04,-0.2128621
2724.969,-0.213695925
2726.897,-0.214632865
2728.825,-0.21573534
2730.754,-0.216832965
2732.682,-0.21779351
2734.611,-0.21874525
2736.539,-0.219635245
2738.468,-0.2207097
2740.396,-0.22165434
2742.325,-0.222322795
2744.253,-0.223108955
2746.182,-0.224125045
2748.11,-0.224892645
2750.039,-0.225713015
2751.967,-0.22677663
2753.896,-0.22761761
2755.824,-0.22829714
2757.753,-0.229199465
2759.681,-0.229980155
2761.61,-0.230850545
2763.538,-0.23157839
2765.467,-0.23204043
2767.395,-0.232650215
2769.324,-0.233372195
2771.252,-0.2342174
2773.181,-0.23501884
2775.109,-0.235646385
2777.038,-0.23629821
2778.966,-0.236975305
2780.895,-0.237636305
2782.823,-0.238344105
2784.752,-0.23883418
2786.68,-0.23933625
2788.609,-0.24001105
2790.537,-0.24062905
2792.466,-0.24116535
2794.394,-0.24183
2796.323,-0.2425752
2798.251,-0.24323065
2800.18,-0.2437362
2802.108,-0.24428905
2804.037,-0.24482505
2805.965,-0.2453327
2807.894,-0.2458177
2809.822,-0.2464413
2811.751,-0.2471174
2813.679,-0.2476553
2815.608,-0.2482645
2817.536,-0.2490345
2819.465,-0.24964515
2821.393,-0.2501937
2823.322,-0.25071025
2825.25,-0.25116455
2827.179,-0.25176965
2829.107,-0.252464
2831.036,-0.2532146
2832.964,-0.253729
2834.893,-0.2542119
2836.821,-0.2546907
2838.75,-0.2551231
2840.678,-0.25566815
2842.607,-0.25607335
2844.535,-0.25654415
2846.464,-0.2571891
2848.392,-0.25766055
2850.321,-0.25818255
2852.249,-0.2586706
2854.178,-0.25909185
2856.106,-0.259726
2858.035,-0.26029105
2859.963,-0.26101925
2861.892,-0.26169365
2863.82,-0.262083
2865.749,-0.26249005
2867.677,-0.2630627
2869.606,-0.26355595
2871.534,-0.26390245
2873.463,-0.2642713
2875.391,-0.2648456
2877.32,-0.265404
2879.248,-0.2658928
2881.177,-0.2664585
2883.105,-0.26684745
2885.034,-0.26741835
2886.962,-0.2679433
2888.891,-0.2684214
2890.819,-0.26895335
2892.748,-0.26903365
2894.676,-0.26931675
2896.605,-0.2701242
2898.533,-0.27069575
2900.462,-0.2711931
2902.39,-0.27155795
2904.319,-0.27185775
2906.247,-0.2723489
2908.176,-0.27282715
2910.104,-0.2730532
2912.033,-0.27343965
2913.961,-0.27371445
2915.89,-0.27373785
2917.818,-0.27418165
2919.747,-0.27470425
2921.675,-0.27499395
2923.604,-0.275221
2925.532,-0.27547865
2927.461,-0.2758038
2929.389,-0.2763754
2931.318,-0.2768176
2933.246,-0.2771473
2935.175,-0.27760895
2937.103,-0.2780761
2939.032,-0.2783585
2940.96,-0.27868765
2942.889,-0.2788871
2944.817,-0.27898845
2946.746,-0.27929875
2948.674,-0.27977775
2950.603,-0.2801244
2952.531,-0.28041615
2954.46,-0.2808798
2956.388,-0.2814571
2958.317,-0.2817212
2960.245,-0.2822493
2962.174,-0.28270425
2964.102,-0.282859
2966.031,-0.2829967
2967.959,-0.2832425
2969.888,-0.28356995
2971.816,-0.28396155
2973.745,-0.28435465
2975.673,-0.2848027
2977.602,-0.2851555
2979.53,-0.2853978
2981.459,-0.28570005
2983.387,-0.28602615
2985.316,-0.2863568
2987.244,-0.28698375
2989.173,-0.28746345
2991.101,-0.28747665
2993.03,-0.2877456
2994.958,-0.2882029
2996.887,-0.28857915
2998.815,-0.2887936
3000.744,-0.28897985
3002.672,-0.28937395
3004.601,-0.28992965
3006.529,-0.29056985
3008.458,-0.29086665
3010.386,-0.29103015
3012.315,-0.291114
3014.243,-0.29148105
3016.172,-0.29189865
3018.1,-0.2921762
3020.029,-0.292536
3021.957,-0.2927691
3023.886,-0.2929189
3025.814,-0.2931911
3027.743,-0.29363325
3029.671,-0.29392605
3031.6,-0.2941702
3033.528,-0.2945113
3035.457,-0.2948013
3037.385,-0.29508165
3039.314,-0.2952774
3041.242,-0.29554315
3043.171,-0.2958892
3045.099,-0.2962521
3047.028,-0.29638935
3048.956,-0.2966037
3050.885,-0.2969312
3052.813,-0.2971917
3054.742,-0.2972685
3056.67,-0.29758225
3058.599,-0.2980203
3060.527,-0.29812575
3062.456,-0.2981814
3064.384,-0.29869545
3066.313,-0.29901115
3068.241,-0.299248
3070.17,-0.29948255
3072.098,-0.2995422
3074.027,-0.2996441
3075.955,-0.300093
3077.884,-0.30046
3079.812,-0.3005336
3081.741,-0.3005924
3083.669,-0.30076675
3085.598,-0.3009521
3087.526,-0.3014195
3089.455,-0.3016213
3091.383,-0.30193785
3093.312,-0.3021477
3095.24,-0.3022864
3097.169,-0.3025013
3099.097,-0.3028409
3101.026,-0.30298915
3102.954,-0.30315455
3104.883,-0.30334295
3106.811,-0.30356105
3108.74,-0.3035687
3110.668,-0.3036321
3112.597,-0.30393875
3114.525,-0.3042286
3116.454,-0.3043486
3118.382,-0.3046341
3120.311,-0.3048443
3122.239,-0.3049987
3124.167,-0.30523615
3126.096,-0.3053949
3128.025,-0.30554615
3129.953,-0.3056922
3131.882,-0.30572465
3133.81,-0.3059173
3135.739,-0.3060084
3137.667,-0.3060303
3139.595,-0.30632675
3141.524,-0.30670665
3143.453,-0.30694355
3145.381,-0.3072546
3147.31,-0.307139
3149.238,-0.3072311
3151.167,-0.307535
3153.095,-0.3077908
3155.023,-0.30794555
3156.952,-0.3080644
3158.881,-0.3080088
3160.809,-0.3080709
3162.738,-0.3083515
3164.666,-0.30840845
3166.594,-0.30808305
3168.523,-0.30836815
3170.452,-0.30890275
3172.38,-0.30928805
3174.309,-0.30911275
3176.237,-0.3093445
3178.166,-0.3094706
3180.094,-0.30967315
3182.022,-0.30994205
3183.951,-0.31000725
3185.88,-0.3097737
3187.808,-0.30966815
3189.737,-0.30994605
3191.665,-0.31038065
3193.594,-0.31051055
3195.522,-0.31057265
3197.45,-0.31052
3199.379,-0.31076635
3201.308,-0.3108424
3203.236,-0.31112455
3205.165,-0.3113429
3207.093,-0.31135255
3209.021,-0.3113679
3210.95,-0.3117775
3212.878,-0.3118827
3214.807,-0.31201365
3216.736,-0.31192065
3218.664,-0.31200025
3220.593,-0.3122631
3222.521,-0.3123643
3224.449,-0.3121624
3226.378,-0.31195445
3228.306,-0.3119299
3230.235,-0.3123164
3232.164,-0.31245145
3234.092,-0.312484
3236.021,-0.31284615
3237.949,-0.313059
3239.877,-0.31295175
3241.806,-0.3131938
3243.734,-0.31313175
3245.663,-0.3132832
3247.592,-0.3136022
3249.52,-0.3136847
3251.448,-0.3139277
3253.377,-0.31399325
3255.305,-0.3135914
3257.234,-0.313972
3259.162,-0.31420835
3261.091,-0.3141983
3263.02,-0.31437995
3264.948,-0.31455755
3266.876,-0.31454705
3268.805,-0.31444645
3270.733,-0.31421655
3272.662,-0.31428205
3274.591,-0.31450615
3276.519,-0.31446285
3278.448,-0.3143256
3280.376,-0.3144032
3282.304,-0.3144825
3284.233,-0.31458645
3286.161,-0.31457675
3288.09,-0.3144249
3290.019,-0.31410935
3291.947,-0.3141055
3293.875,-0.3140583
3295.804,-0.31410645
3297.732,-0.3141372
3299.661,-0.3138792
3301.589,-0.313456
3303.518,-0.31362355
3305.447,-0.31358545
3307.375,-0.3134627
3309.303,-0.31334295
3311.232,-0.3130892
3313.16,-0.31287195
3315.089,-0.3127723
3317.017,-0.3125147
3318.946,-0.3126869
3320.875,-0.3124755
3322.803,-0.3122355
3324.731,-0.31213105
3326.66,-0.3125031
3328.588,-0.31265875
3330.517,-0.31246075
3332.445,-0.31234435
3334.374,-0.31267995
3336.302,-0.31292105
3338.231,-0.31333255
3340.159,-0.3134879
3342.088,-0.31342765
3344.016,-0.31329955
3345.945,-0.3133737
3347.873,-0.3132329
3349.802,-0.31258265
3351.73,-0.3117862
3353.659,-0.311203
3355.587,-0.31062775
3357.516,-0.3102233
3359.444,-0.31018985
3361.373,-0.3106005
3363.302,-0.31116615
3365.23,-0.3121092
3367.158,-0.3129509
3369.087,-0.3140535
3371.015,-0.3151592
3372.944,-0.31601575
3374.872,-0.3165445
3376.801,-0.3171213
3378.729,-0.31767495
3380.658,-0.3181097
3382.586,-0.31815055
3384.515,-0.3181037
3386.443,-0.31829095
3388.372,-0.31879615
3390.3,-0.3189898
3392.229,-0.3192438
3394.157,-0.3194856
3396.086,-0.31932905
3398.014,-0.3191358
3399.943,-0.31938235
3401.871,-0.31927675
3403.8,-0.3194756
3405.728,-0.31985435
3407.657,-0.32024705
3409.585,-0.3203414
3411.514,-0.32049445
3413.442,-0.3205943
3415.371,-0.3208334
3417.299,-0.3206157
3419.228,-0.3204964
3421.156,-0.3206134
3423.085,-0.3210197
3425.013,-0.3209517
3426.942,-0.3213099
3428.87,-0.32111015
3430.799,-0.32129725
3432.727,-0.3217803
3434.656,-0.3219423
3436.584,-0.32214525
3438.513,-0.3223799
3440.441,-0.3220508
3442.37,-0.3221525
3444.298,-0.3224073
3446.227,-0.32257695
3448.155,-0.3227618
3450.084,-0.322862
3452.012,-0.3226792
3453.941,-0.322661
3455.869,-0.32299745
3457.798,-0.3232992
3459.726,-0.32287945
3461.655,-0.3227977
3463.583,-0.32305275
3465.512,-0.3233739
3467.44,-0.32330575
3469.369,-0.3230612
3471.297,-0.32288755
3473.226,-0.32310975
3475.154,-0.32284075
3477.083,-0.3231157
3479.011,-0.32327345
3480.94,-0.32281095
3482.868,-0.3226023
3484.797,-0.32304475
3486.725,-0.32298385
3488.654,-0.32304275
3490.582,-0.32321695
3492.511,-0.3232468
3494.439,-0.3228405
3496.368,-0.32270025
3498.296,-0.32271105
3500.225,-0.322686
3502.153,-0.32216265
3504.082,-0.32231305
3506.01,-0.3225678
3507.939,-0.3224353
3509.867,-0.32227975
3511.796,-0.32257305
3513.724,-0.32235965
3515.653,-0.3220709
3517.581,-0.32203815
3519.51,-0.3221605
3521.438,-0.3215916
3523.367,-0.3210714
3525.295,-0.3212245
3527.224,-0.3213225
3529.152,-0.3214788
3531.081,-0.3221926
3533.009,-0.32277505
3534.938,-0.3232821
3536.866,-0.3233964
3538.795,-0.32374975
3540.723,-0.32394095
3542.652,-0.3235898
3544.58,-0.32304325
3546.509,-0.32347065
3548.437,-0.3239588
3550.366,-0.32417065
3552.294,-0.32387175
3554.223,-0.32382495
3556.151,-0.32389495
3558.08,-0.32394195
3560.008,-0.323307
3561.937,-0.3228905
3563.865,-0.3222832
3565.794,-0.3216153
3567.722,-0.32159375
3569.651,-0.32218505
3571.579,-0.32211065
3573.508,-0.3222276
3575.436,-0.3228654
3577.365,-0.3237084
3579.293,-0.32425585
3581.222,-0.32518035
3583.15,-0.32577255
3585.079,-0.3254913
3587.007,-0.3251007
3588.936,-0.3263102
3590.864,-0.32655035
3592.793,-0.3258965
3594.721,-0.32534025
3596.65,-0.3259181
3598.578,-0.32612725
3600.507,-0.3261439
3602.435,-0.3263533
3604.364,-0.32684795
3606.292,-0.3265931
3608.221,-0.3262882
3610.149,-0.32672135
3612.078,-0.3267491
3614.006,-0.32653735
3615.935,-0.32674175
3617.863,-0.32638105
3619.792,-0.3264423
3621.72,-0.32707855
3623.649,-0.3277676
3625.577,-0.32737005
3627.506,-0.326416
3629.434,-0.3264359
3631.363,-0.32760245
3633.291,-0.3277899
3635.22,-0.32835675
3637.148,-0.32834875
3639.077,-0.3286707
3641.005,-0.328908
3642.934,-0.3287381
3644.862,-0.328298
3646.791,-0.32676425
3648.719,-0.32552845
3650.648,-0.3268445
3652.576,-0.3284895
3654.505,-0.3286973
3656.433,-0.3282953
3658.362,-0.32881915
3660.29,-0.32918775
3662.219,-0.32949215
3664.147,-0.3293299
3666.076,-0.32903565
3668.004,-0.3278534
3669.933,-0.32733575
3671.861,-0.3279391
3673.79,-0.32720215
3675.718,-0.3257882
3677.647,-0.327615
3679.575,-0.3282406
3681.504,-0.32885025
3683.432,-0.3288756
3685.361,-0.32872595
3687.289,-0.32798635
3689.218,-0.32709055
3691.146,-0.3276098
3693.075,-0.3286266
3695.003,-0.32881965
3696.932,-0.32900625
3698.86,-0.32876375
3700.789,-0.32817505
3702.717,-0.32809875
3704.646,-0.3286754
3706.574,-0.3286144
3708.503,-0.32803065
3710.431,-0.3268546
3712.36,-0.32724385
3714.288,-0.3280937
3716.217,-0.32862995
3718.145,-0.32823995
3720.074,-0.3281374
3722.002,-0.32781465
3723.931,-0.32712375
3725.859,-0.3269532
3727.788,-0.32767145
3729.716,-0.32775895
3731.645,-0.3272413
3733.573,-0.32627645
3735.502,-0.32562695
3737.43,-0.32723895
3739.359,-0.3283983
3741.287,-0.32809315
3743.216,-0.32764385
3745.144,-0.3270986
3747.073,-0.3272835
3749.001,-0.32701145
3750.93,-0.32619155
3752.858,-0.3269993
3754.787,-0.32837705
3756.715,-0.32843525
3758.644,-0.32796655
3760.572,-0.32835415
3762.5,-0.3294545
3764.429,-0.3288796
3766.358,-0.32899455
3768.286,-0.3292365
3770.215,-0.32920005
3772.143,-0.32974205
3774.072,-0.3299702
3776.0,-0.32995565
3777.928,-0.32945895
3779.857,-0.32876165
3781.786,-0.3293367
3783.714,-0.32916485
3785.643,-0.3292241
3787.571,-0.32976765
3789.5,-0.3303068
3791.428,-0.330499
3793.356,-0.3301759
3795.285,-0.3292049
3797.214,-0.32878325
3799.142,-0.32828935
3801.071,-0.3273428
3802.999,-0.3286956
3804.927,-0.3295373
3806.856,-0.3295253
3808.785,-0.33010645
3810.713,-0.32994555
3812.642,-0.32991955
3814.57,-0.32941305
3816.499,-0.32890895
3818.427,-0.3287554
3820.355,-0.3281418
3822.284,-0.3286523
3824.213,-0.3294627
3826.141,-0.3290565
3828.07,-0.3294902
3829.998,-0.3294868
3831.927,-0.32916605
3833.855,-0.32923145
3835.783,-0.32881795
3837.712,-0.3282552
3839.641,-0.3287742
3841.569,-0.3290611
3843.498,-0.3287854
3845.426,-0.32923135
3847.354,-0.3296564
3849.283,-0.3292332
3851.211,-0.3286362
3853.14,-0.3274754
3855.069,-0.328294
3856.997,-0.32856675
3858.926,-0.32926205
3860.854,-0.3293759
3862.782,-0.3285794
3864.711,-0.32775565
3866.639,-0.32868405
3868.568,-0.3280188
3870.497,-0.32719465
3872.425,-0.3281153
3874.354,-0.3285703
3876.282,-0.32949675
3878.21,-0.3293002
3880.139,-0.32816735
3882.067,-0.3284335
3883.996,-0.3286058
3885.925,-0.3286966
3887.853,-0.32901565
3889.781,-0.3287097
3891.71,-0.3281988
3893.638,-0.328837
3895.567,-0.3288259
3897.495,-0.3282851
3899.424,-0.3272998
3901.353,-0.32755435
3903.281,-0.32684085
3905.209,-0.32685845
3907.138,-0.32833925
3909.066,-0.32927455
3910.995,-0.3293496
3912.924,-0.3294407
3914.852,-0.3290959
3916.781,-0.32856125
3918.709,-0.3284675
3920.637,-0.32889435
3922.566,-0.3287947
3924.494,-0.32835665
3926.423,-0.3284658
3928.352,-0.32849345
3930.28,-0.3280973
3932.208,-0.32849525
3934.137,-0.329208
3936.065,-0.32979765
3937.994,-0.32956025
3939.922,-0.3294245
3941.851,-0.32880305
3943.78,-0.32885765
3945.708,-0.3291816
3947.636,-0.3291584
3949.565,-0.3286974
3951.493,-0.32886585
3953.422,-0.32915155
3955.35,-0.3293398
3957.279,-0.3289755
3959.208,-0.32916125
3961.136,-0.32921075
3963.064,-0.32923545
3964.993,-0.32912255
3966.921,-0.3294726
3968.85,-0.32950755
3970.778,-0.32932705
3972.707,-0.3289368
3974.635,-0.3289319
3976.564,-0.3291458
3978.492,-0.3292936
3980.421,-0.3290121
3982.349,-0.32915245
3984.278,-0.32933995
3986.206,-0.3294998
3988.135,-0.32945025
3990.063,-0.329444
3991.992,-0.32946875
3993.92,-0.3294741
3995.849,-0.3291437
3997.777,-0.32926695
3999.706,-0.32906735
4001.634,-0.3289942
4003.563,-0.32898625
4005.491,-0.3291251
4007.42,-0.32918945
4009.348,-0.3291669
4011.277,-0.3291774
4013.205,-0.32918455
4015.134,-0.32904465
4017.063,-0.32915135
4018.991,-0.32888895
4020.919,-0.32878145
4022.848,-0.32882765
4024.776,-0.3290232
4026.705,-0.3288915
4028.633,-0.32900535
4030.562,-0.32870785
4032.49,-0.32839125
4034.419,-0.32841935
4036.347,-0.3286423
4038.276,-0.32845895
4040.204,-0.32861935
4042.133,-0.3283805
4044.061,-0.3280908
4045.99,-0.3280568
4047.918,-0.3280994
4049.847,-0.3279706
4051.775,-0.3278411
4053.704,-0.3276321
4055.632,-0.3278991
4057.561,-0.32831895
4059.489,-0.3282118
4061.418,-0.32786595
4063.346,-0.3279969
4065.275,-0.32790325
4067.203,-0.32791395
4069.132,-0.32776885
4071.06,-0.3277837
4072.989,-0.32761925
4074.917,-0.3275196
4076.846,-0.32773705
4078.774,-0.3276459
4080.703,-0.32748465
4082.631,-0.3274973
4084.56,-0.3274189
4086.488,-0.32752295
4088.417,-0.32728785
4090.345,-0.3271966
4092.274,-0.3271586
4094.202,-0.3273589
4096.131,-0.3270253
4098.059,-0.32684595
4099.988,-0.32693415
4101.917,-0.3271651
4103.845,-0.32707095
4105.773,-0.32716495
4107.702,-0.32715915
4109.63,-0.3271259
4111.559,-0.3266887
4113.487,-0.32701495
4115.416,-0.32694755
4117.344,-0.32662715
4119.273,-0.32653985
4121.201,-0.32665765
4123.13,-0.3265528
4125.058,-0.32680015
4126.987,-0.32692675
4128.916,-0.3267289
4130.844,-0.32654545
4132.772,-0.32671465
4134.701,-0.3263557
4136.629,-0.32630865
4138.558,-0.3261822
4140.486,-0.32621515
4142.415,-0.3262506
4144.343,-0.32633525
4146.272,-0.3261653
4148.2,-0.326025
4150.129,-0.32604705
4152.057,-0.3265041
4153.986,-0.3266243
4155.914,-0.3265929
4157.843,-0.3263921
4159.771,-0.3263079
4161.7,-0.3262396
4163.628,-0.3267081
4165.557,-0.32654125
4167.485,-0.3259309
4169.414,-0.3256226
4171.342,-0.3259969
4173.271,-0.32592655
4175.199,-0.3261794
4177.128,-0.32623285
4179.056,-0.325969
4180.985,-0.3256713
4182.913,-0.32576875
4184.842,-0.3257064
4186.77,-0.32595225
4188.699,-0.32609305
4190.627,-0.32648065
4192.556,-0.3262695
4194.484,-0.32599365
4196.413,-0.32593945
4198.341,-0.3258765
4200.27,-0.325647
4202.198,-0.32577595
4204.127,-0.32572905
4206.055,-0.32575445
4207.984,-0.325363
4209.912,-0.32533365
4211.841,-0.3254842
4213.769,-0.32560465
4215.698,-0.32543555
4217.626,-0.32561165
4219.555,-0.32561155
4221.483,-0.3254882
4223.412,-0.32539335
4225.34,-0.32551975
4227.269,-0.3249211
4229.197,-0.32476215
4231.125,-0.32510585
4233.054,-0.3252735
4234.983,-0.325264
4236.911,-0.3253366
4238.84,-0.3250151
4240.768,-0.32481235
4242.697,-0.3244578
4244.625,-0.32466475
4246.554,-0.32503
4248.482,-0.32493865
4250.411,-0.3246862
4252.339,-0.3248631
4254.268,-0.3246393
4256.196,-0.32462255
4258.125,-0.3243066
4260.053,-0.3242186
4261.982,-0.3240566
4263.91,-0.32426965
4265.839,-0.32382935
4267.767,-0.32366955
4269.696,-0.32362035
4271.624,-0.3237786
4273.553,-0.32357305
4275.481,-0.32368165
4277.41,-0.3236942
4279.338,-0.3236666
4281.267,-0.3234301
4283.195,-0.32363805
4285.124,-0.32383625
4287.052,-0.32396985
4288.98,-0.32389085
4290.909,-0.324056
4292.838,-0.3239043
4294.766,-0.32391345
4296.695,-0.3233799
4298.623,-0.32321155
4300.552,-0.3229338
4302.48,-0.3228355
4304.409,-0.32259835
4306.337,-0.3228712
4308.266,-0.32313085
4310.194,-0.32316785
4312.123,-0.32302945
4314.051,-0.32300035
4315.979,-0.3227891
4317.908,-0.32269595
4319.836,-0.3224081
4321.765,-0.3225263
4323.694,-0.3226846
4325.622,-0.32267495
4327.551,-0.3222911
4329.479,-0.322369
4331.408,-0.32275285
4333.336,-0.3230083
4335.265,-0.3227154
4337.193,-0.3226332
4339.122,-0.32257495
4341.05,-0.32252325
4342.979,-0.3223769
4344.907,-0.32275075
4346.835,-0.32309575
4348.764,-0.3228938
4350.693,-0.322483
4352.621,-0.32239785
4354.55,-0.32208565
4356.478,-0.32257865
4358.407,-0.32300405
4360.335,-0.32275465
4362.264,-0.3221962
4364.192,-0.3225357
4366.121,-0.32251035
4368.049,-0.3224274
4369.978,-0.32233285
4371.906,-0.32222185
4373.834,-0.32209285
4375.763,-0.3222462
4377.691,-0.3222877
4379.62,-0.32244215
4381.549,-0.32256175
4383.477,-0.3223088
4385.406,-0.32179895
4387.334,-0.32199155
4389.263,-0.32220045
4391.191,-0.32222925
4393.12,-0.3220449
4395.048,-0.3221257
4396.977,-0.3219506
4398.905,-0.32155435
4400.833,-0.3211684
4402.762,-0.32154195
4404.69,-0.32155145
4406.619,-0.32180935
4408.547,-0.321655
4410.476,-0.32151215
4412.405,-0.32134795
4414.333,-0.3215616
4416.262,-0.3217058
4418.19,-0.32191065
4420.119,-0.3221721
4422.047,-0.3224795
4423.976,-0.3217347
4425.904,-0.32139225
4427.833,-0.32155415
4429.761,-0.32190225
4431.689,-0.3214084
4433.618,-0.32103345
4435.546,-0.32074535
4437.475,-0.32071535
4439.403,-0.32086425
4441.332,-0.3212342
4443.261,-0.32091255
4445.189,-0.32097645
4447.118,-0.3206609
4449.046,-0.32063025
4450.975,-0.3207558
4452.903,-0.3206371
4454.832,-0.32072975
4456.76,-0.3209799
4458.688,-0.3207334
4460.617,-0.3206265
4462.545,-0.32067165
4464.474,-0.32059295
4466.402,-0.3202752
4468.331,-0.32011775
4470.26,-0.3199959
4472.188,-0.3202245
4474.117,-0.3200367
4476.045,-0.31985995
4477.974,-0.31972645
4479.902,-0.31996455
4481.831,-0.3195738
4483.759,-0.3195103
4485.688,-0.32009595
4487.616,-0.3203376
4489.544,-0.3200205
4491.473,-0.31964965
4493.401,-0.3193462
4495.33,-0.3197021
4497.258,-0.31978665
4499.187,-0.319688
4501.116,-0.3196186
4503.044,-0.31963925
4504.973,-0.31919095
4506.901,-0.31918265
4508.83,-0.31930025
4510.758,-0.31934
4512.687,-0.3192187
4514.615,-0.3196664
4516.543,-0.31966855
4518.472,-0.3196068
4520.4,-0.31929165
4522.329,-0.31912035
4524.257,-0.3191217
4526.186,-0.31914205
4528.114,-0.3192584
4530.043,-0.31931545
4531.972,-0.319142
4533.9,-0.31911365
4535.829,-0.3189886
4537.757,-0.31913545
4539.686,-0.3190384
4541.614,-0.3188916
4543.542,-0.31895865
4545.471,-0.3192255
4547.399,-0.3190723
4549.328,-0.31920045
4551.256,-0.31892555
4553.185,-0.31878155
4555.113,-0.3188631
4557.042,-0.3188785
4558.971,-0.3188244
4560.899,-0.3190134
4562.828,-0.31898805
4564.756,-0.3192251
4566.685,-0.31899625
4568.613,-0.31885815
4570.542,-0.31904815
4572.47,-0.31949495
4574.398,-0.3194593
4576.327,-0.3193522
4578.255,-0.3188893
4580.184,-0.31899525
4582.112,-0.31895275
4584.041,-0.31851395
4585.969,-0.31833075
4587.898,-0.3188754
4589.827,-0.3191524
4591.755,-0.31928205
4593.684,-0.3193255
4595.612,-0.3194422
4597.541,-0.318963
4599.469,-0.3182272
4601.397,-0.3184137
4603.326,-0.31928255
4605.254,-0.3191665
4607.183,-0.318461
4609.111,-0.31802775
4611.04,-0.31813085
4612.968,-0.3180088
4614.897,-0.3183588
4616.825,-0.3184937
4618.754,-0.31849885
4620.683,-0.31839305
4622.611,-0.31846835
4624.54,-0.3182516
4626.468,-0.31827855
4628.396,-0.318199
4630.325,-0.3183133
4632.253,-0.3180328
4634.182,-0.3178504
4636.11,-0.31810235
4638.039,-0.31837455
4639.967,-0.3180633
4641.896,-0.3179082
4643.824,-0.3180524
4645.753,-0.31822075
4647.682,-0.318027
4649.61,-0.3178567
4651.539,-0.31780045
4653.467,-0.3177245
4655.396,-0.3176311
4657.324,-0.3174995
4659.252,-0.31700425
4661.181,-0.31698205
4663.109,-0.31682
4665.038,-0.31669605
4666.966,-0.31655855
4668.895,-0.31712765
4670.823,-0.31764555
4672.752,-0.31755305
4674.68,-0.31666375
4676.609,-0.3166434
4678.538,-0.3169037
4680.466,-0.31676365
4682.395,-0.3170462
4684.323,-0.3168533
4686.251,-0.31631415
4688.18,-0.3163415
4690.108,-0.3163705
4692.037,-0.3165987
4693.965,-0.3166895
4695.894,-0.3162788
4697.822,-0.31607935
4699.751,-0.31641115
4701.679,-0.31660205
4703.608,-0.3164344
4705.536,-0.3164006
4707.465,-0.31626205
4709.394,-0.3161252
4711.322,-0.31670955
4713.25,-0.3168189
4715.179,-0.31664545
4717.107,-0.3165134
4719.036,-0.31669025
4720.964,-0.3166825
4722.893,-0.3164974
4724.821,-0.31610295
4726.75,-0.3162591
4728.678,-0.3162553
4730.607,-0.31630265
4732.535,-0.31615955
4734.464,-0.3160405
4736.392,-0.31584295
4738.321,-0.3159551
4740.25,-0.31585085
4742.178,-0.31622615
4744.106,-0.3161152
4746.035,-0.315817
4747.963,-0.3156006
4749.892,-0.31570395
4751.82,-0.31591625
4753.749,-0.31601765
4755.677,-0.31615345
4757.606,-0.3163654
4759.534,-0.31631745
4761.463,-0.31626965
4763.391,-0.31591615
4765.32,-0.31544025
4767.249,-0.31506675
4769.177,-0.31552725
4771.105,-0.315994
4773.034,-0.31627365
4774.962,-0.31611565
4776.891,-0.3159589
4778.819,-0.3156141
4780.748,-0.31555495
4782.676,-0.315732
4784.605,-0.3159489
4786.533,-0.31541125
4788.462,-0.31505285
4790.39,-0.31464045
4792.319,-0.3148826
4794.247,-0.31524265
4796.176,-0.31582095
4798.104,-0.31560435
4800.033,-0.31503255
4801.961,-0.31476915
4803.89,-0.3149726
4805.818,-0.31478335
4807.747,-0.3147325
4809.675,-0.3147491
4811.604,-0.31490915
4813.532,-0.31475685
4815.461,-0.31453565
4817.389,-0.31490365
4819.318,-0.3151983
4821.246,-0.31478505
4823.175,-0.3143085
4825.103,-0.31420085
4827.032,-0.31440025
4828.96,-0.31449025
4830.889,-0.3143921
4832.817,-0.31464405
4834.746,-0.3148269
4836.674,-0.3142264
4838.603,-0.31407755
4840.531,-0.31427835
4842.46,-0.3141405
4844.388,-0.3137544
4846.317,-0.3141754
4848.245,-0.3143896
4850.174,-0.3148543
4852.102,-0.31485445
4854.031,-0.3143651
4855.959,-0.31414565
4857.888,-0.31427725
4859.816,-0.31405645
4861.745,-0.3143639
4863.673,-0.3141771
4865.602,-0.3140108
4867.53,-0.31366655
4869.458,-0.3137038
4871.387,-0.3136535
4873.316,-0.31389585
4875.244,-0.31393415
4877.173,-0.31391245
4879.101,-0.31333655
4881.03,-0.31335005
4882.958,-0.3136711
4884.887,-0.31393945
4886.815,-0.31355735
4888.744,-0.3131477
4890.672,-0.31299975
4892.601,-0.3130362
4894.529,-0.31277865
4896.458,-0.312926
4898.386,-0.3129769
4900.315,-0.31267075
4902.243,-0.31241025
4904.172,-0.31317275
4906.1,-0.31354185
4908.029,-0.313469
4909.957,-0.3130892
4911.886,-0.31279475
4913.814,-0.3130276
4915.743,-0.3130276
4917.671,-0.3122825
4919.6,-0.31215805
4921.528,-0.31224735
4923.457,-0.31249095
4925.385,-0.31282275
4927.313,-0.31299665
4929.242,-0.31263055
4931.171,-0.3123281
4933.099,-0.31243755
4935.028,-0.31252435
4936.956,-0.3124991
4938.885,-0.31304845
4940.813,-0.31287845
4942.742,-0.31246835
4944.67,-0.31244865
4946.599,-0.31283695
4948.527,-0.31281615
4950.456,-0.3126935
4952.384,-0.3126123
4954.313,-0.31280545
4956.241,-0.3127263
4958.169,-0.31275145
4960.098,-0.3119542
4962.027,-0.3119293
4963.955,-0.3124608
4965.884,-0.3126509
4967.812,-0.31220525
4969.741,-0.3124758
4971.669,-0.31243055
4973.598,-0.31226685
4975.526,-0.3120351
4977.455,-0.31192455
4979.383,-0.31179165
4981.312,-0.31219235
4983.24,-0.31225165
4985.168,-0.3125749
4987.097,-0.3128087
4989.025,-0.3121927
4990.954,-0.31154635
4992.883,-0.31212655
4994.811,-0.3128245
4996.74,-0.31310235
4998.668,-0.31285745
5000.597,-0.31170875
5002.525,-0.3112794
5004.454,-0.3118783
5006.382,-0.3120101
5008.311,-0.3119113
5010.239,-0.3116839
5012.167,-0.3114888
5014.096,-0.31109835
5016.024,-0.3115872
5017.953,-0.3118668
5019.882,-0.31146235
5021.81,-0.311035
5023.739,-0.3112115
5025.667,-0.3114296
5027.596,-0.3114188
5029.524,-0.31115255
5031.453,-0.3114969
5033.381,-0.31106145
5035.31,-0.3106174
5037.238,-0.31013875
5039.167,-0.31016575
5041.095,-0.3102388
5043.023,-0.31049865
5044.952,-0.3103133
5046.88,-0.31032185
5048.809,-0.3107043
5050.738,-0.31116215
5052.666,-0.31143315
5054.595,-0.3108934
5056.523,-0.30989605
5058.452,-0.3104622
5060.38,-0.3106244
5062.309,-0.30990365
5064.237,-0.3097998
5066.166,-0.3100932
5068.094,-0.3102256
5070.022,-0.3100736
5071.951,-0.30971585
5073.879,-0.3099229
5075.808,-0.30973735
5077.736,-0.31008985
5079.665,-0.30996225
5081.594,-0.31022655
5083.522,-0.30984205
5085.451,-0.30938515
5087.379,-0.30918015
5089.308,-0.3094244
5091.236,-0.3093817
5093.165,-0.30961615
5095.093,-0.30957535
5097.021,-0.309277
5098.95,-0.3094833
5100.878,-0.31005835
5102.807,-0.3099751
5104.735,-0.30935905
5106.664,-0.3090175
5108.593,-0.30982545
5110.521,-0.30959655
5112.45,-0.3089264
5114.378,-0.3091264
5116.307,-0.3095353
5118.235,-0.3087555
5120.164,-0.30901805
5122.092,-0.30925495
5124.021,-0.30974555
5125.949,-0.30984605
5127.877,-0.3092268
5129.806,-0.3088217
5131.734,-0.3090338
5133.663,-0.308924
5135.591,-0.3083607
5137.52,-0.30821395
5139.449,-0.30852125
5141.377,-0.3083609
5143.306,-0.3085079
5145.234,-0.30879775
5147.163,-0.30867985
5149.091,-0.3089324
5151.02,-0.30947775
5152.948,-0.3099511
5154.876,-0.30921805
5156.805,-0.3082943
5158.733,-0.30825285
5160.662,-0.30848625
5162.59,-0.3092532
5164.519,-0.309379
5166.447,-0.3090454
5168.376,-0.30835795
5170.305,-0.30785735
5172.233,-0.30799465
5174.162,-0.3077837
5176.09,-0.3081328
5178.019,-0.30851025
5179.947,-0.3085074
5181.875,-0.30829535
5183.804,-0.3072858
5185.732,-0.3075131
5187.661,-0.3082798
5189.589,-0.3088213
5191.518,-0.30872585
5193.446,-0.30872795
5195.375,-0.30840575
5197.304,-0.30755375
5199.232,-0.30781835
5201.161,-0.3082316
5203.089,-0.3081898
5205.018,-0.30708355
5206.946,-0.3064755
5208.875,-0.30720065
5210.803,-0.3073204
5212.731,-0.3076794
5214.66,-0.30782475
5216.588,-0.3079208
5218.517,-0.30712605
5220.445,-0.30727685
5222.374,-0.3076635
5224.302,-0.30726605
5226.231,-0.30597805
5228.16,-0.3063672
5230.088,-0.3067907
5232.017,-0.3069552
5233.945,-0.30725475
5235.874,-0.30709125
5237.802,-0.30649975
5239.73,-0.30680705
5241.659,-0.30668015
5243.587,-0.30584885
5245.516,-0.30546925
5247.444,-0.30527925
5249.373,-0.3058106
5251.301,-0.30586115
5253.23,-0.30508895
5255.158,-0.3050582
5257.087,-0.3056718
5259.016,-0.3059471
5260.944,-0.305177
5262.873,-0.3052432
5264.801,-0.3049239
5266.729,-0.30490005
5268.658,-0.3044411
5270.586,-0.30542005
5272.515,-0.3060952
5274.443,-0.306041
5276.372,-0.30592165
5278.3,-0.3060185
5280.229,-0.30546145
5282.157,-0.30498265
5284.086,-0.3046027
5286.014,-0.3050014
5287.943,-0.3055368
5289.872,-0.30496945
5291.8,-0.3051435
5293.729,-0.30565825
5295.657,-0.3057476
5297.585,-0.3059341
5299.514,-0.305569
5301.442,-0.30591385
5303.371,-0.3055627
5305.299,-0.30495105
5307.228,-0.3035892
5309.156,-0.3040474
5311.085,-0.30440985
5313.013,-0.3039894
5314.942,-0.303426
5316.871,-0.303859
5318.799,-0.30476225
5320.728,-0.3052662
5322.656,-0.30449835
5324.584,-0.3041277
5326.513,-0.30326855
5328.441,-0.3037857
5330.37,-0.30431475
5332.298,-0.30394275
5334.227,-0.3037095
5336.155,-0.30285455
5338.084,-0.30175385
5340.012,-0.30288025
5341.941,-0.30329115
5343.869,-0.30272945
5345.798,-0.3033087
5347.727,-0.30417315
5349.655,-0.30414665
5351.583,-0.3032062
5353.512,-0.3021409
5355.44,-0.3039695
5357.369,-0.3043967
5359.297,-0.30381465
5361.226,-0.3030336
5363.154,-0.30299265
5365.083,-0.3033196
5367.011,-0.3033076
5368.94,-0.30273515
5370.868,-0.30328665
5372.797,-0.30287275
5374.725,-0.3023267
5376.654,-0.3022663
5378.583,-0.3033943
5380.511,-0.3039898
5382.439,-0.30346575
5384.368,-0.3024158
5386.296,-0.3026501
5388.225,-0.30379995
5390.153,-0.30385165
5392.082,-0.3024209
5394.01,-0.30208705
5395.939,-0.30272695
5397.867,-0.303116
5399.796,-0.3028458
5401.724,-0.30213255
5403.653,-0.30194945
5405.582,-0.30238075
5407.51,-0.30208905
5409.438,-0.3013579
5411.367,-0.3001414
5413.295,-0.30016935
5415.224,-0.3016947
5417.152,-0.303031
5419.081,-0.3028525
5421.009,-0.30269755
5422.938,-0.3021221
5424.866,-0.3018067
5426.795,-0.30095185
5428.723,-0.2995202
5430.652,-0.2999871
5432.58,-0.30097065
5434.509,-0.2998486
5436.438,-0.3011073
5438.366,-0.30228175
5440.294,-0.3015452
5442.223,-0.29992935
5444.151,-0.2990947
5446.08,-0.2995798
5448.008,-0.30111705
5449.937,-0.301642
5451.865,-0.3019115
5453.794,-0.2998896
5455.722,-0.29897425
5457.651,-0.2995065
5459.579,-0.29928655
5461.508,-0.29879735
5463.436,-0.29954655
5465.365,-0.29933915
5467.293,-0.2989163
5469.222,-0.2993651
5471.15,-0.30033125
5473.079,-0.30006425
5475.007,-0.2990135
5476.936,-0.2992409
5478.864,-0.2996295
5480.793,-0.29982395
5482.721,-0.29971345
5484.65,-0.2988254
5486.578,-0.29874915
5488.507,-0.29850365
5490.435,-0.2980737
5492.364,-0.29727165
5494.292,-0.29797355
5496.221,-0.2981184
5498.149,-0.298506
5500.078,-0.2982887
5502.006,-0.29809155
5503.935,-0.29784885
5505.863,-0.29812565
5507.792,-0.29819175
5509.72,-0.2984381
5511.649,-0.2984834
5513.577,-0.29791685
5515.506,-0.297257
5517.434,-0.29757515
5519.363,-0.29766055
5521.291,-0.29714555
5523.22,-0.2962713
5525.148,-0.2965184
5527.077,-0.2973189
5529.005,-0.29737435
5530.934,-0.29677905
5532.862,-0.29716805
5534.791,-0.29738745
5536.719,-0.2972326
5538.648,-0.29705215
5540.576,-0.297173
5542.505,-0.29711635
5544.433,-0.29734715
5546.362,-0.29680625
5548.29,-0.2961255
5550.219,-0.29601025
5552.147,-0.29701275
5554.076,-0.29769485
5556.004,-0.29657035
5557.933,-0.29522835
5559.861,-0.2963322
5561.79,-0.29607215
5563.718,-0.29522575
5565.646,-0.29582595
5567.575,-0.29664715
5569.504,-0.29635725
5571.432,-0.2960377
5573.361,-0.29576605
5575.289,-0.2965063
5577.218,-0.29607815
5579.146,-0.2955908
5581.075,-0.2954804
5583.003,-0.29622035
5584.932,-0.2961404
5586.86,-0.29562055
5588.789,-0.2949962
5590.717,-0.29471065
5592.646,-0.2948845
5594.574,-0.2958741
5596.502,-0.29532445
5598.431,-0.2945003
5600.36,-0.29450135
5602.288,-0.29513525
5604.217,-0.29546735
5606.145,-0.2951627
5608.074,-0.2939013
5610.002,-0.29395025
5611.931,-0.29419855
5613.859,-0.2944082
5615.788,-0.29386615
5617.716,-0.29390025
5619.645,-0.29407225
5621.573,-0.29419075
5623.501,-0.2928622
5625.43,-0.29219915
5627.358,-0.29303825
5629.287,-0.2936003
5631.216,-0.29316345
5633.144,-0.29325335
5635.073,-0.29277305
5637.001,-0.292735
5638.93,-0.29259275
5640.858,-0.2926366
5642.787,-0.29274125
5644.715,-0.2922716
5646.644,-0.29143505
5648.572,-0.29159465
5650.5,-0.29141415
5652.429,-0.29154665
5654.357,-0.29159705
5656.286,-0.2919368
5658.215,-0.2920846
5660.143,-0.29186345
5662.072,-0.29111265
5664.0,-0.29151855
5665.929,-0.29201695
5667.857,-0.29143415
5669.786,-0.29028905
5671.714,-0.29002265
5673.643,-0.28929335
5675.571,-0.28912305
5677.5,-0.28914735
5679.428,-0.2888241
5681.356,-0.288543
5683.285,-0.28881995
5685.213,-0.28803055
5687.142,-0.28803315
5689.071,-0.28898125
5690.999,-0.28913205
5692.928,-0.2887437
5694.856,-0.28835285
5696.785,-0.2885551
5698.713,-0.28909805
5700.642,-0.28842415
5702.57,-0.28845875
5704.499,-0.28843345
5706.427,-0.2876655
5708.355,-0.2872666
5710.284,-0.2881187
5712.212,-0.2880148
5714.141,-0.28812395
5716.069,-0.28806075
5717.998,-0.2873173
5719.927,-0.28621825
5721.855,-0.2861045
5723.784,-0.2859198
5725.712,-0.2862618
5727.641,-0.2862437
5729.569,-0.2858638
5731.498,-0.2859563
5733.426,-0.28696545
5735.354,-0.2869283
5737.283,-0.28606155
5739.211,-0.28506155
5741.14,-0.2851008
5743.068,-0.2849067
5744.997,-0.28453005
5746.926,-0.2848536
5748.854,-0.2852206
5750.783,-0.2845689
5752.711,-0.2852376
5754.64,-0.28511605
5756.568,-0.28412125
5758.497,-0.28316855
5760.425,-0.2836557
5762.354,-0.2838763
5764.282,-0.2832394
5766.21,-0.28328465
5768.139,-0.2836883
5770.067,-0.2830322
5771.996,-0.28304455
5773.924,-0.28274905
5775.853,-0.28340105
5777.782,-0.28311125
5779.71,-0.28294645
5781.639,-0.2828868
5783.567,-0.2828879
5785.496,-0.2821371
5787.424,-0.2817531
5789.353,-0.2814431
5791.281,-0.28111595
5793.209,-0.2809243
5795.138,-0.28082905
5797.066,-0.28061545
5798.995,-0.2808624
5800.923,-0.28031265
5802.852,-0.27955705
5804.78,-0.27886955
5806.709,-0.27945885
5808.638,-0.27948655
5810.566,-0.279005
5812.495,-0.2788633
5814.423,-0.2793718
5816.352,-0.2788343
5818.28,-0.278772
5820.208,-0.2790236
5822.137,-0.2790177
5824.065,-0.2780886
5825.994,-0.277637
5827.922,-0.2777347
5829.851,-0.27788725
5831.779,-0.27628475
5833.708,-0.27618725
5835.637,-0.277228
5837.565,-0.2773819
5839.494,-0.2766578
5841.422,-0.27644805
5843.351,-0.2756612
5845.279,-0.2761784
5847.208,-0.2759745
5849.136,-0.27576265
5851.064,-0.27531435
5852.993,-0.2747527
5854.921,-0.27484565
5856.85,-0.2752843
5858.778,-0.2738682
5860.707,-0.27354575
5862.635,-0.2738355
5864.564,-0.27475865
5866.493,-0.27490385
5868.421,-0.2739859
5870.35,-0.2731922
5872.278,-0.2739815
5874.207,-0.27442075
5876.135,-0.27440415
5878.063,-0.2726729
5879.992,-0.2722629
5881.92,-0.27217385
5883.849,-0.2708778
5885.777,-0.27064315
5887.706,-0.27198505
5889.634,-0.27129335
5891.563,-0.26973765
5893.491,-0.27041815
5895.42,-0.2709276
5897.349,-0.2693849
5899.277,-0.26923185
5901.206,-0.26846575
5903.134,-0.26816435
5905.063,-0.26866805
5906.991,-0.26873825
5908.919,-0.2681475
5910.848,-0.26800865
5912.776,-0.26746585
5914.705,-0.2669194
5916.633,-0.26714665
5918.562,-0.26735955
5920.49,-0.26717805
5922.419,-0.26730315
5924.347,-0.2665131
5926.276,-0.26634295
5928.205,-0.26581575
5930.133,-0.2653961
5932.062,-0.264472
5933.99,-0.26404875
5935.918,-0.26433965
5937.847,-0.2650336
5939.775,-0.26462845
5941.704,-0.2655107
5943.632,-0.265232
5945.561,-0.2646298
5947.489,-0.2636314
5949.418,-0.2636045
5951.346,-0.26367085
5953.275,-0.2628474
5955.204,-0.2609224
5957.132,-0.2610972
5959.061,-0.26183275
5960.989,-0.26176385
5962.917,-0.2623728
5964.846,-0.2633959
5966.774,-0.26227565
5968.703,-0.26178205
5970.631,-0.26152015
5972.56,-0.26049635
5974.488,-0.25959415
5976.417,-0.2598082
5978.345,-0.2599124
5980.274,-0.2595396
5982.202,-0.25979255
5984.131,-0.25955285
5986.06,-0.25847835
5987.988,-0.25824615
5989.917,-0.2574748
5991.845,-0.25758975
5993.773,-0.2578502
5995.702,-0.25737395
5997.63,-0.25656665
5999.559,-0.2569777
6001.487,-0.2562896
6003.416,-0.254941
6005.344,-0.25441905
6007.273,-0.25439825
6009.201,-0.2534566
6011.13,-0.25412055
6013.058,-0.25496615
6014.987,-0.25517385
6016.916,-0.2542537
6018.844,-0.25358375
6020.772,-0.25204835
6022.701,-0.2524465
6024.629,-0.2523425
6026.558,-0.2519217
6028.486,-0.2518453
6030.415,-0.2513206
6032.343,-0.2498497
6034.272,-0.249903
6036.2,-0.2498936
6038.129,-0.24989855
6040.057,-0.24947775
6041.986,-0.2504928
6043.915,-0.25063745
6045.843,-0.2495203
6047.771,-0.2481707
6049.7,-0.24869375
6051.628,-0.24846775
6053.557,-0.2481422
6055.485,-0.2473669
6057.414,-0.2473015
6059.342,-0.24703545
6061.271,-0.24626855
6063.199,-0.24616125
6065.128,-0.24565225
6067.056,-0.2445253
6068.985,-0.24409445
6070.913,-0.24317455
6072.842,-0.24261165
6074.771,-0.24204975
6076.699,-0.2429215
6078.627,-0.2431159
6080.556,-0.24265945
6082.484,-0.242029
6084.413,-0.24168245
6086.341,-0.24094175
6088.27,-0.2403774
6090.198,-0.24045995
6092.127,-0.2413625
6094.055,-0.2403421
6095.984,-0.2387275
6097.912,-0.23771695
6099.841,-0.23788975
6101.769,-0.23713275
6103.698,-0.23780965
6105.626,-0.2372346
6107.555,-0.235977
6109.483,-0.23585945
6111.412,-0.2362524
6113.34,-0.2348447
6115.269,-0.23407757
6117.197,-0.234027785
6119.126,-0.2346385
6121.054,-0.23401435
6122.983,-0.233046715
6124.911,-0.231741315
6126.84,-0.231889855
6128.768,-0.23156429
6130.697,-0.2316564
6132.625,-0.23104406
6134.554,-0.2308724
6136.482,-0.230690475
6138.411,-0.230350445
6140.339,-0.22969519
6142.268,-0.23014562
6144.196,-0.229308805
6146.125,-0.22797504
6148.053,-0.2263654
6149.982,-0.226178665
6151.91,-0.22672747
6153.839,-0.227043765
6155.767,-0.226646705
6157.696,-0.22707868
6159.624,-0.225363175
6161.553,-0.22363537
6163.481,-0.22259984
6165.41,-0.22192701
6167.338,-0.22151014
6169.267,-0.223186815
6171.195,-0.22257562
6173.124,-0.22187451
6175.052,-0.22063427
6176.981,-0.220163765
6178.909,-0.21969441
6180.838,-0.220017585
6182.766,-0.220966325
6184.695,-0.221676055
6186.623,-0.220006325
6188.552,-0.21885315
6190.48,-0.21823141
6192.409,-0.217748795
6194.337,-0.21717884
6196.266,-0.21686808
6198.194,-0.21573149
6200.123,-0.215579435
6202.051,-0.21556308
6203.979,-0.21451904
6205.908,-0.21357885
6207.837,-0.212805555
6209.765,-0.21137174
6211.694,-0.210252695
6213.622,-0.209857985
6215.551,-0.210398375
6217.479,-0.2101781
6219.408,-0.210642685
6221.336,-0.209784575
6223.265,-0.208796165
6225.193,-0.20694041
6227.122,-0.20605128
6229.05,-0.205858335
6230.979,-0.20561494
6232.907,-0.20625079
6234.835,-0.205823555
6236.764,-0.20348949
6238.693,-0.20282702
6240.621,-0.20356039
6242.55,-0.20450296
6244.478,-0.202049325
6246.407,-0.201064575
6248.335,-0.20187711
6250.264,-0.202081135
6252.192,-0.199734575
6254.121,-0.19854828
6256.049,-0.19772569
6257.978,-0.19696184
6259.906,-0.19693298
6261.834,-0.19846627
6263.763,-0.19785772
6265.691,-0.19656599
6267.62,-0.195137725
6269.549,-0.194195055
6271.477,-0.19184016
6273.406,-0.192421445
6275.334,-0.193121795
6277.263,-0.19241873
6279.191,-0.191263455
6281.12,-0.19180252
6283.048,-0.192038705
6284.977,-0.191114185
6286.905,-0.18834658
6288.833,-0.18814157
6290.762,-0.18741046
6292.69,-0.18690464
6294.619,-0.18751292
6296.548,-0.18645496
6298.476,-0.183495945
6300.405,-0.18314745
6302.333,-0.183828305
6304.262,-0.18430496
6306.19,-0.18295808
6308.119,-0.181013305
6310.047,-0.17930642
6311.976,-0.18017873
6313.904,-0.18002231
6315.833,-0.178980245
6317.761,-0.1771277
6319.689,-0.175317075
6321.618,-0.17355222
6323.546,-0.175299855
6325.475,-0.17595617
6327.404,-0.17477034
6329.332,-0.174473885
6331.261,-0.17497161
6333.189,-0.174081545
6335.118,-0.17356883
6337.046,-0.172309145
6338.975,-0.1722434
6340.903,-0.170543985
6342.832,-0.170221185
6344.76,-0.170305365
6346.688,-0.168140195
6348.617,-0.165880295
6350.545,-0.16588374
6352.474,-0.16564635
6354.402,-0.166547285
6356.331,-0.1662891
6358.26,-0.16648064
6360.188,-0.164939725
6362.117,-0.16212793
6364.045,-0.16158146
6365.974,-0.162991135
6367.902,-0.1617930355
6369.831,-0.16169368
6371.759,-0.1601102655
6373.688,-0.157855816
6375.616,-0.156578119
6377.544,-0.1568634485
6379.473,-0.1552525385
6381.401,-0.1552505355
6383.33,-0.1536140709
6385.259,-0.15208198395
6387.187,-0.151211333
6389.116,-0.1503425055
6391.044,-0.1502257725
6392.973,-0.1504071045
6394.901,-0.148305438
6396.83,-0.147964674
6398.758,-0.148039637
6400.687,-0.147497264
6402.615,-0.145713936
6404.543,-0.1461002325
6406.472,-0.144637435
6408.4,-0.14332807
6410.329,-0.141663995
6412.257,-0.142897385
6414.186,-0.143593435
6416.115,-0.141682815
6418.043,-0.138449265
6419.972,-0.13802529
6421.9,-0.13711795
6423.829,-0.13620018
6425.757,-0.135913825
6427.686,-0.135752015
6429.614,-0.13396506
6431.542,-0.13539206
6433.471,-0.135654515
6435.399,-0.135361525
6437.328,-0.13337602
6439.256,-0.13128839
6441.185,-0.129894305
6443.113,-0.13001337
6445.042,-0.12775688
6446.971,-0.126409515
6448.899,-0.126310165
6450.828,-0.126544595
6452.756,-0.124544045
6454.685,-0.12520229
6456.613,-0.124994515
6458.542,-0.12287759
6460.47,-0.120982455
6462.398,-0.11974566
6464.327,-0.118085275
6466.255,-0.11832555
6468.184,-0.118104195
6470.112,-0.119548735
6472.041,-0.1184238
6473.97,-0.116283315
6475.898,-0.11346019
6477.827,-0.11290583
6479.755,-0.11202825
6481.684,-0.11154664
6483.612,-0.10996259
6485.541,-0.106839075
6487.469,-0.105669465
6489.397,-0.10653084
6491.326,-0.1054481
6493.254,-0.104755965
6495.183,-0.10551929
6497.111,-0.10701044
6499.04,-0.105383605
6500.968,-0.105197245
6502.897,-0.1032663
6504.826,-0.10005333
6506.754,-0.098705535
6508.683,-0.099970985
6510.611,-0.097386235
6512.54,-0.093185295
6514.468,-0.092108155
6516.396,-0.094493465
6518.325,-0.09411181
6520.253,-0.09160548
6522.182,-0.08911409
6524.11,-0.08886033
6526.039,-0.086650745
6527.967,-0.08558421
6529.896,-0.084817845
6531.824,-0.0867535
6533.753,-0.08757792
6535.682,-0.08561519
6537.61,-0.08150243
6539.539,-0.08107816
6541.467,-0.081112105
6543.396,-0.08031483
6545.324,-0.07985376
6547.252,-0.07832459
6549.181,-0.077268865
6551.109,-0.077332145
6553.038,-0.07511394
6554.966,-0.072524395
6556.895,-0.071577865
6558.823,-0.07191117
6560.752,-0.070990235
6562.68,-0.07079884
6564.609,-0.069586
6566.538,-0.06766325
6568.466,-0.06567745
6570.395,-0.0660434
6572.323,-0.06369355
6574.251,-0.06117075
6576.18,-0.0586975
6578.108,-0.05844975
6580.037,-0.05828845
6581.965,-0.05893615
6583.894,-0.05860795
6585.822,-0.0589337
6587.751,-0.0580065
6589.679,-0.05513615
6591.608,-0.0535749
6593.537,-0.0542583
6595.465,-0.05218635
6597.394,-0.05025865
6599.322,-0.04738975
6601.25,-0.04678375
6603.179,-0.0476738
6605.107,-0.04645465
6607.036,-0.04438175
6608.964,-0.04547755
6610.893,-0.04380925
6612.821,-0.0422309
6614.75,-0.0421039
6616.678,-0.04127615
6618.607,-0.0398486
6620.535,-0.03880285
6622.464,-0.0363539
6624.393,-0.0344314
6626.321,-0.0339272
6628.25,-0.0336659
6630.178,-0.0316667
6632.106,-0.0312085
6634.035,-0.0297726
6635.963,-0.0290145
6637.892,-0.02614255
6639.82,-0.0233851
6641.749,-0.0202432
6643.677,-0.01970445
6645.606,-0.0202927
6647.534,-0.020214
6649.463,-0.01807295
6651.391,-0.01844805
6653.32,-0.01612185
6655.249,-0.0123116
6657.177,-0.01223635
6659.105,-0.01596165
6661.034,-0.0154531
6662.962,-0.01296845
6664.891,-0.0091666
6666.819,-0.00837305
6668.748,-0.0103553
6670.676,-0.0088805
6672.605,-0.00437965
6674.533,-0.00546345
6676.462,-0.00167835
6678.39,0.0022283
6680.319,-0.0005236
6682.248,-0.0011968
6684.176,0.0011439
6686.104,0.0027457
6688.033,0.005838
6689.961,0.00590895
6691.89,0.0074755
6693.818,0.0079979
6695.747,0.00987315
6697.675,0.0087961
6699.604,0.0082763
6701.532,0.0118116
6703.461,0.01413365
6705.389,0.01537805
6707.318,0.0178452
6709.246,0.01783385
6711.175,0.0179081
6713.104,0.0182049
6715.032,0.0220046
6716.96,0.02574965
6718.889,0.02734265
6720.817,0.02688835
6722.746,0.02886
6724.674,0.02931395
6726.603,0.02998245
6728.531,0.02944145
6730.46,0.03143425
6732.388,0.03395195
6734.317,0.03642685
6736.245,0.03744985
6738.174,0.0415078
6740.102,0.04136375
6742.031,0.0404679
6743.959,0.0412186
6745.888,0.0417722
6747.816,0.0406804
6749.745,0.044425
6751.673,0.0471743
6753.602,0.04759105
6755.53,0.04741375
6757.459,0.0522503
6759.387,0.05570545
6761.316,0.0576607
6763.244,0.05768555
6765.173,0.05779135
6767.101,0.0584606
6769.03,0.0619891
6770.958,0.06087395
6772.887,0.0594866
6774.815,0.06167135
6776.744,0.0662083
6778.672,0.06557205
6780.601,0.06781615
6782.529,0.0690116
6784.458,0.07057475
6786.386,0.0720162
6788.315,0.07170395
6790.243,0.07257075
6792.172,0.0731464
6794.1,0.07725485
6796.029,0.08176085
6797.957,0.08109245
6799.886,0.08386545
6801.814,0.0827357
6803.743,0.0839385
6805.671,0.0887452
6807.6,0.0902116
6809.528,0.09116565
6811.457,0.09221965
6813.385,0.0916908
6815.313,0.09473915
6817.242,0.09628255
6819.171,0.0977356
6821.099,0.10047325
6823.028,0.09907565
6824.956,0.0968974
6826.885,0.1020536
6828.813,0.10199895
6830.742,0.10284475
6832.67,0.1071956
6834.599,0.11034325
6836.527,0.1104718
6838.456,0.109536
6840.384,0.1090887
6842.313,0.11062075
6844.241,0.11127024
6846.17,0.115248285
6848.098,0.11749588
6850.027,0.12006175
6851.955,0.12221816
6853.884,0.12757835
6855.812,0.129941885
6857.741,0.12782815
6859.669,0.12848021
6861.598,0.12823146
6863.526,0.13017686
6865.455,0.13771973
6867.383,0.134786415
6869.312,0.133227585
6871.24,0.134656985
6873.168,0.13498081
6875.097,0.13500658
6877.026,0.1396931
6878.954,0.139659725
6880.883,0.14323365
6882.811,0.149212055
6884.74,0.15113679
6886.668,0.14905695
6888.597,0.151037735
6890.525,0.14899938
6892.454,0.15313581
6894.382,0.15594988
6896.311,0.15465045
6898.239,0.154914745
6900.167,0.155696595
6902.096,0.15873447
6904.024,0.164973965
6905.953,0.164931715
6907.882,0.16263154
6909.81,0.162193305
6911.739,0.168361065
6913.667,0.170945875
6915.596,0.173612165
6917.524,0.175228305
6919.453,0.17672859
6921.381,0.17237028
6923.31,0.17788386
6925.238,0.18075253
6927.167,0.175942405
6929.095,0.174348715
6931.023,0.178235075
6932.952,0.1836662
6934.881,0.184246875
6936.809,0.182244055
6938.738,0.19182057
6940.666,0.19701877
6942.595,0.196323835
6944.523,0.194805815
6946.452,0.197466625
6948.38,0.199996725
6950.309,0.203959635
6952.237,0.204157595
6954.166,0.20185858
6956.094,0.199547585
6958.022,0.200038885
6959.951,0.20514593
6961.879,0.21145576
6963.808,0.20714483
6965.737,0.206267505
6967.665,0.20941612
6969.594,0.21325086
6971.522,0.21576378
6973.451,0.216744795
6975.379,0.221739095
6977.308,0.224643165
6979.236,0.22304247
6981.165,0.22106808
6983.093,0.22616961
6985.021,0.237790641
6986.95,0.239719648
6988.878,0.23291246
6990.807,0.2283221325
6992.735,0.2284766135
6994.664,0.2299672445
6996.593,0.226012487
6998.521,0.226490729
7000.45,0.229954825
7002.378,0.228542691
7004.307,0.2428993565
7006.235,0.24495911
7008.164,0.2357568455
7010.092,0.2361181025
7012.021,0.243533755
7013.949,0.244508695
7015.877,0.24386649
7017.806,0.245460305
7019.734,0.25145493
7021.663,0.254022095
7023.592,0.251514935
7025.52,0.2542145
7027.449,0.261314385
7029.377,0.261105345
7031.306,0.26448353
7033.234,0.26367639
7035.163,0.265017725
7037.091,0.265171135
7039.02,0.265014915
7040.948,0.26732013
7042.876,0.265885935
7044.805,0.26464255
7046.733,0.27501893
7048.662,0.281425295
7050.59,0.27666058
7052.519,0.27465839
7054.448,0.280531695
7056.376,0.283489765
7058.305,0.285753185
7060.233,0.286008855
7062.162,0.286165855
7064.09,0.286819575
7066.019,0.287614935
7067.947,0.28579638
7069.875,0.28597278
7071.804,0.289998475
7073.732,0.291371865
7075.661,0.29095383
7077.589,0.29616483
7079.518,0.299848505
7081.446,0.30443068
7083.375,0.303942785
7085.304,0.30350573
7087.232,0.29922951
7089.161,0.30581443
7091.089,0.311530735
7093.018,0.311822115
7094.946,0.314664165
7096.875,0.32244508
7098.803,0.31506841
7100.731,0.31469309
7102.66,0.32106734
7104.588,0.319018745
7106.517,0.31577726
7108.445,0.319825815
7110.374,0.32720531
7112.302,0.327900265
7114.231,0.330754705
7116.16,0.34069576
7118.088,0.338977335
7120.017,0.332584705
7121.945,0.33512223
7123.874,0.34390491
7125.802,0.348622455
7127.73,0.349201385
7129.659,0.344451705
7131.587,0.340168525
7133.516,0.33812376
7135.444,0.34261242
7137.373,0.34621844
7139.301,0.34132832
7141.23,0.33856582
7143.159,0.34730007
7145.087,0.357135725
7147.016,0.357491385
7148.944,0.353597125
7150.873,0.351913275
7152.801,0.354627035
7154.729,0.35837827
7156.658,0.35228728
7158.586,0.363172505
7160.515,0.377508715
7162.443,0.37981395
7164.372,0.3709138
7166.3,0.366122
7168.229,0.36693815
7170.157,0.3742199
7172.086,0.3769212
7174.015,0.37638455
7175.943,0.3805279
7177.872,0.3903545
7179.8,0.38409265
7181.729,0.3807969
7183.657,0.38798025
7185.585,0.385911
7187.514,0.3783948
7189.442,0.389985
7191.371,0.40706765
7193.299,0.40666585
7195.228,0.3966817
7197.156,0.3894425
7199.085,0.387255
7201.013,0.3969985
7202.942,0.3945151
7204.871,0.4031248
7206.799,0.40777095
7208.728,0.39815805
7210.656,0.3892662
7212.584,0.4020141
7214.513,0.4074146
7216.441,0.4081724
7218.37,0.41024515
7220.298,0.4230119
7222.227,0.42291435
7224.155,0.42929745
7226.084,0.4266575
7228.012,0.42033765
7229.941,0.41995935
7231.87,0.41892405
7233.798,0.42180855
7235.727,0.4315364
7237.655,0.44347845
7239.583,0.44672705
7241.512,0.43037775
7243.44,0.4301023
7245.369,0.43846315
7247.297,0.44617795
7249.226,0.43050335
7251.154,0.42596475
7253.083,0.44673715
7255.011,0.4577916
7256.94,0.4506091
7258.868,0.4490051
7260.797,0.44434365
7262.726,0.44784765
7264.654,0.45228745
7266.583,0.4490269
7268.511,0.4443641
7270.439,0.4427806
7272.368,0.46237395
7274.296,0.45925255
7276.225,0.45032765
7278.153,0.454215
7280.082,0.4494799
7282.01,0.45294895
7283.939,0.47601205
7285.867,0.4772619
7287.796,0.46362415
7289.724,0.46585325
7291.653,0.47134145
7293.582,0.4834604
7295.51,0.4703959
7297.438,0.4597639
7299.367,0.4780828
7301.295,0.4894157
7303.224,0.4823455
7305.152,0.47295095
7307.081,0.4677524
7309.009,0.47094085
7310.938,0.4886083
7312.866,0.5010712
7314.795,0.4836263
7316.723,0.46765235
7318.652,0.4825876
7320.581,0.5033177
7322.509,0.5007927
7324.438,0.49581185
7326.366,0.49064605
7328.294,0.46677625
7330.223,0.46335535
7332.151,0.48185155
7334.08,0.49132875
7336.008,0.49574985
7337.937,0.4937093
7339.865,0.4881727
7341.794,0.4866594
7343.722,0.4973026
7345.651,0.5023255
7347.579,0.50925255
7349.508,0.53048495
7351.437,0.52756445
7353.365,0.508356
7355.293,0.5098249
7357.222,0.51467995
7359.15,0.5092006
7361.079,0.5093216
7363.007,0.5094016
7364.936,0.5026878
7366.864,0.5037196
7368.793,0.50868865
7370.721,0.5035948
7372.65,0.5269908
7374.578,0.52735965
7376.507,0.5330502
7378.435,0.54912145
7380.364,0.55191575
7382.292,0.55819825
7384.221,0.55495455
7386.149,0.54851485
7388.078,0.526659
7390.006,0.5054472
7391.935,0.51750955
7393.863,0.5430213
7395.792,0.5375319
7397.72,0.52985515
7399.649,0.53671715
7401.577,0.55682205
7403.506,0.56444815
7405.434,0.5556929
7407.363,0.5507551
7409.291,0.5452746
7411.22,0.5371597
7413.148,0.54691135
7415.077,0.55338575
7417.005,0.5517728
7418.934,0.53382765
7420.862,0.5308278
7422.791,0.5465843
7424.719,0.54858925
7426.648,0.56297235
7428.576,0.56987195
7430.505,0.56743595
7432.433,0.5513551
7434.362,0.5428426
7436.29,0.57222795
7438.219,0.5693613
7440.147,0.545903
7442.076,0.53867975
7444.004,0.56423615
7445.933,0.58254325
7447.861,0.5781638
7449.79,0.5777373
7451.718,0.58036215
7453.646,0.59622745
7455.575,0.5908811
7457.504,0.58679565
7459.432,0.5970737
7461.361,0.575412
7463.289,0.5673089
7465.218,0.59311925
7467.146,0.61592995
7469.075,0.59743365
7471.003,0.6031452
7472.932,0.63127895
7474.86,0.62283075
7476.789,0.60202795
7478.717,0.56043285
7480.646,0.5555951
7482.574,0.56638765
7484.503,0.5791599
7486.431,0.5966367
7488.36,0.59191475
7490.288,0.58140975
7492.217,0.5869035
7494.145,0.57127905
7496.074,0.5757138
7498.002,0.59781115
7499.931,0.59352285
7501.859,0.5617466
7503.788,0.5769884
7505.716,0.60506985
7507.645,0.600289
7509.573,0.58885365
7511.501,0.576769
7513.43,0.58318055
7515.359,0.59272085
7517.287,0.60267435
7519.216,0.63441095
7521.144,0.6276862
7523.073,0.6260235
7525.001,0.60703715
7526.93,0.5614041
7528.858,0.58902155
7530.787,0.62417035
7532.715,0.6345042
7534.644,0.6190527
7536.572,0.62256995
7538.5,0.6445923
7540.429,0.63861025
7542.357,0.61557005
7544.286,0.62230335
7546.215,0.61582535
7548.143,0.62140455
7550.072,0.62675965
7552.0,0.64695865
7553.929,0.66020325
7555.857,0.6529247
7557.786,0.65676425
7559.714,0.63301695
7561.643,0.62947325
7563.571,0.64465745
7565.5,0.6266296
7567.428,0.6126122
7569.356,0.6077186
7571.285,0.6274543
7573.214,0.70192545
7575.142,0.68717185
7577.071,0.6325654
7578.999,0.59626705
7580.928,0.6007642
7582.856,0.65902245
7584.785,0.71221955
7586.713,0.66386695
7588.642,0.6234636
7590.57,0.64097165
7592.499,0.66100495
7594.427,0.6669701
7596.355,0.6617972
7598.284,0.6615748
7600.212,0.65791355
7602.141,0.67937035
7604.07,0.6771549
7605.998,0.6291719
7607.927,0.63167995
7609.855,0.6346383
7611.784,0.6304613
7613.712,0.66477115
7615.641,0.68560685
7617.569,0.6899621
7619.498,0.68309175
7621.426,0.66381885
7623.354,0.6265663
7625.283,0.61454295
7627.211,0.60978675
7629.14,0.6205696
7631.068,0.666015
7632.997,0.6743221
7634.926,0.68438125
7636.854,0.67477145
7638.783,0.6427188
7640.711,0.629897
7642.64,0.66817955
7644.568,0.68746745
7646.497,0.64714755
7648.425,0.6347464
7650.354,0.68238225
7652.282,0.69248765
7654.21,0.67080565
7656.139,0.702645
7658.067,0.741735
7659.996,0.7418126
7661.925,0.7002544
7663.853,0.6820664
7665.782,0.7178654
7667.71,0.7162409
7669.639,0.73112695
7671.567,0.7460323
7673.496,0.7453686
7675.424,0.71657325
7677.353,0.69006075
7679.281,0.6658248
7681.209,0.68688905
7683.138,0.6656969
7685.066,0.6411934
7686.995,0.7050178
7688.923,0.68194445
7690.852,0.639451
7692.781,0.62689885
7694.709,0.64081765
7696.638,0.65071835
7698.566,0.6627378
7700.495,0.6804168
7702.423,0.7269191
7704.352,0.7339572
7706.28,0.7196431
7708.208,0.77376265
7710.137,0.78279465
7712.065,0.73419565
7713.994,0.73511735
7715.922,0.73787765
7717.851,0.7183357
7719.779,0.69587815
7721.708,0.67502755
7723.637,0.6913926
7725.565,0.72098305
7727.494,0.7283459
7729.422,0.7111278
7731.351,0.7269909
7733.279,0.70465565
7735.208,0.67792825
7737.136,0.74114275
7739.064,0.78910905
7740.993,0.76033025
7742.921,0.7179683
7744.85,0.68979735
7746.778,0.74825805
7748.707,0.79850975
7750.635,0.7456913
7752.564,0.69929045
7754.493,0.7211522
7756.421,0.7742359
7758.35,0.74069895
7760.278,0.7200114
7762.207,0.7036475
7764.135,0.70298735
7766.063,0.7175513
7767.992,0.6866223
7769.92,0.68046295
7771.849,0.71560635
7773.777,0.72065495
7775.706,0.71144265
7777.634,0.70668785
7779.563,0.74818025
7781.492,0.7428682
7783.42,0.70669025
7785.349,0.6708512
7787.277,0.68527515
7789.206,0.7183244
7791.134,0.68163895
7793.063,0.66027425
7794.991,0.66695905
7796.919,0.69942645
7798.848,0.74685505
7800.776,0.72775565
7802.705,0.7223652
7804.633,0.7569239
7806.562,0.77870615
7808.49,0.74103395
7810.419,0.7361138
7812.348,0.77390195
7814.276,0.78009825
7816.205,0.7580087
7818.133,0.68033795
7820.062,0.6835621
7821.99,0.723441
7823.918,0.69418425
7825.847,0.69506525
7827.775,0.7018944
7829.704,0.69537195
7831.632,0.7140707
7833.561,0.74304
7835.489,0.75176225
7837.418,0.7356103
7839.346,0.7021281
7841.275,0.6974165
7843.204,0.763813
7845.132,0.73933965
7847.061,0.7098616
7848.989,0.7500722
7850.917,0.72449685
7852.846,0.68730875
7854.774,0.66826055
7856.703,0.6769361
7858.631,0.7292414
7860.56,0.7353615
7862.488,0.7487201
7864.417,0.7790749
7866.345,0.7537935
7868.274,0.74608465
7870.203,0.72155075
7872.131,0.73367885
7874.06,0.72661965
7875.988,0.74579625
7877.917,0.7540121
7879.845,0.7455966
7881.773,0.75093555
7883.702,0.7128316
7885.63,0.72104565
7887.559,0.743641
7889.487,0.68885125
7891.416,0.691349
7893.344,0.7561117
7895.273,0.7751646
7897.201,0.7514901
7899.13,0.772914
7901.059,0.7800178
7902.987,0.7316374
7904.916,0.69225955
7906.844,0.6904809
7908.772,0.6934283
7910.701,0.7491443
7912.629,0.75222725
7914.558,0.71797105
7916.486,0.74498785
7918.415,0.74208095
7920.343,0.70398825
7922.272,0.6671729
7924.2,0.68787695
7926.129,0.72392025
7928.057,0.7311958
7929.986,0.72633885
7931.915,0.69935945
7933.843,0.6564492
7935.771,0.6663271
7937.7,0.70439825
7939.628,0.69884425
7941.557,0.7028527
7943.485,0.76029585
7945.414,0.8092221
7947.342,0.7687206
7949.271,0.8129891
7951.199,0.7137234
7953.128,0.6767965
7955.056,0.8061927
7956.985,0.83947325
7958.914,0.76366415
7960.842,0.6938226
7962.771,0.67450195
7964.699,0.7759263
7966.627,0.7509862
7968.556,0.7649283
7970.484,0.7961304
7972.413,0.74535545
7974.341,0.739583
7976.27,0.71415775
7978.198,0.72454425
7980.127,0.72969705
7982.055,0.77486435
7983.984,0.7763065
7985.912,0.7254025
7987.841,0.74263
7989.77,0.79929
7991.698,0.70730355
7993.626,0.64958845
7995.555,0.6872493
7997.483,0.8077662
7999.412,0.8363168
8001.34,0.7693566
8003.269,0.7131313
8005.197,0.7138165
8007.126,0.7598408
8009.054,0.75292695
8010.983,0.7396873
8012.911,0.73338885
8014.84,0.7470008
8016.768,0.72318115
8018.697,0.7002478
8020.625,0.7400461
8022.554,0.7475438
8024.482,0.70247815
8026.411,0.69748765
8028.339,0.71415405
8030.268,0.71864745
8032.196,0.7426575
8034.125,0.80192415
8036.053,0.8625254
8037.982,0.79154965
8039.91,0.7098637
8041.839,0.63736485
8043.767,0.69289055
8045.696,0.78878185
8047.624,0.78032095
8049.553,0.8106325
8051.481,0.756475
8053.41,0.685855
8055.338,0.7012387
8057.267,0.7259147
8059.195,0.7164105
8061.124,0.66764055
8063.052,0.70755125
8064.981,0.7267837
8066.909,0.78259025
8068.838,0.82905095
8070.766,0.7490166
8072.695,0.82224765
8074.623,0.88069685
8076.552,0.736868
8078.48,0.6883812
8080.409,0.6867694
8082.337,0.72160075
8084.266,0.89280925
8086.194,0.80267995
8088.123,0.8050487
8090.051,0.8510663
8091.979,0.7943832
8093.908,0.7761014
8095.837,0.8710921
8097.765,1.0234648
8099.694,0.89269085
8101.622,0.76886955
8103.551,0.8694103
8105.479,0.89199795
8107.408,0.84281445
8109.336,0.8391891
8111.265,0.8431867
8113.193,0.75946435
8115.122,0.6871147
8117.05,0.72107155
8118.979,0.8324388
8120.907,0.96512545
8122.836,0.94042965
8124.764,0.7706115
8126.693,0.76852565
8128.621,0.76511425
8130.55,0.6971256
8132.478,0.6946073
8134.407,0.67893075
8136.335,0.70843605
8138.264,0.75611495
8140.192,0.75521515
8142.121,0.67233735
8144.049,0.6887004
8145.978,0.7847815
8147.906,0.9360159
8149.834,0.94349125
8151.763,0.88863835
8153.692,0.82905435
8155.62,0.8340271
8157.549,0.90153655
8159.477,0.877887
8161.406,0.85751605
8163.334,0.8577227
8165.263,0.89728145
8167.191,0.80784695
8169.12,0.76071875
8171.048,0.72083025
8172.977,0.71996365
8174.905,0.63967845
8176.833,0.5993129
8178.762,0.72627705
8180.69,0.8735296
8182.619,0.79490055
8184.548,0.7444402
8186.476,0.8151414
8188.405,0.77811435
8190.333,0.65617305
8192.262,0.70199735
8194.19,0.84523095
8196.118,1.0679628
8198.047,0.8718211
8199.976,0.8049862
8201.904,0.8592438
8203.833,0.7570011
8205.761,0.7583572
8207.689,0.87745805
8209.618,0.85935705
8211.547,0.8543389
8213.476,0.77966425
8215.403,0.7616307
8217.332,0.80012295
8219.261,0.82118445
8221.189,0.9545822
8223.117,0.883291
8225.046,0.94792675
8226.975,1.2651136
8228.903,0.90954955
8230.832,0.91262365
8232.76,0.9571259
8234.688,0.6971691
8236.617,0.63276415
8238.546,0.6768641
8240.474,0.8138098
8242.402,0.8244211
8244.331,0.7924063
8246.26,0.7200962
8248.188,0.7948249
8250.116,0.8827084
8252.045,1.39377895
8253.974,3.2887352
8255.902,1.11280855
8257.831,0.94980165
8259.759,3.33345245
8261.688,3.3106644
8263.616,1.0621862
8265.545,0.87711235
8267.473,3.28741105
8269.401,3.3417477
8271.33,3.38158355
8273.259,0.9470691
8275.188,0.62069565
8277.115,0.6784467
8279.044,0.757179
8280.973,0.74326135
8282.901,1.03348595
8284.829,3.29726945
8286.758,3.27465325
8288.687,3.2591617
8290.615,0.8880288
8292.544,0.68125495
8294.472,0.6335669
8296.4,0.718068
8298.329,0.8026754
8300.258,0.7744114
8302.187,0.8432937
8304.114,0.96053025
8306.043,0.93103815
8307.972,0.75195
8309.9,1.08385425
8311.828,3.25166325
8313.757,3.3082653
8315.686,3.29454815
8317.614,1.42728475
8319.543,0.74391525
8321.471,0.62614555
8323.399,0.7283687
8325.328,0.76198145
8327.257,0.77366805
8329.185,0.8199638
8331.113,0.8620319
8333.042,0.83812205
8334.971,0.8323109
8336.899,0.8350812
8338.827,0.7416435
8340.756,0.73983415
8342.685,3.3180641
8344.613,1.0095992
8346.542,0.63563485
8348.47,0.64554115
8350.398,0.8021825
8352.327,0.7426674
8354.256,0.964523
8356.184,3.2160225
8358.112,0.92051935
8360.041,1.22931015
8361.97,1.06421335
8363.898,0.77952185
8365.826,0.69876905
8367.755,0.8319067
8369.684,0.96787925
8371.612,3.2482163
8373.54,1.9804261
8375.469,0.7674891
8377.397,0.67101595
8379.326,0.9240922
8381.255,1.0156075
8383.183,0.8387777
8385.111,0.71272955
8387.04,0.8161966
8388.969,0.9148362
8390.897,0.86701905
8392.825,0.85961695
8394.754,3.27501865
8396.683,3.32804075
8398.611,3.50339
8400.539,3.6384995
8402.468,0.9213129
8404.396,0.7123117
8406.325,0.74850065
8408.254,0.77669085
8410.182,0.87005805
8412.11,1.0711562
8414.039,0.81070725
8415.968,0.8526166
8417.896,0.99430495
8419.824,1.01686605
8421.753,3.2662336
8423.682,3.3637618
8425.61,3.4617469
8427.538,3.4815874
8429.467,0.8571246
8431.396,0.76484
8433.324,3.2219583
8435.253,0.9342226
8437.181,0.9177282
8439.109,1.42205305
8441.038,1.1192568
8442.967,0.8597299
8444.895,0.73205715
8446.823,0.8171971
8448.752,1.2970285
8450.681,1.2525864
8452.609,0.9060823
8454.537,1.00625485
8456.466,1.08199365
8458.395,3.2230814
8460.323,1.5993599
8462.251,0.829581
8464.18,1.1130157
8466.108,1.3215551
8468.037,0.8690869
8469.966,1.0355891
8471.894,3.4797559
8473.822,0.8950619
8475.751,0.6795959
8477.68,3.20790795
8479.608,3.27607175
8481.536,3.23811785
8483.465,3.18264365
8485.394,0.7568552
8487.322,0.67699035
8489.25,0.87628005
8491.179,1.0318282
8493.107,0.9406058
8495.036,1.04787655
8496.965,1.20387485
8498.893,3.4147314
8500.821,1.1479997
