wavenumber (/cm),baseline value (/cm),baseline-subtracted absorbance (/cm),
3.290019000000000233e+03,3.462049775854119105e-01,-4.440892098500626162e-15
3.291947000000000116e+03,3.461791423906177556e-01,-4.539785457552181214e-03
3.293875000000000000e+03,3.461407871649271328e-01,4.475572468831678918e-04
3.295804000000000087e+03,3.460898822721851786e-01,-5.340059031810895362e-05
3.297731999999999971e+03,3.460264804909165548e-01,2.812598192032833566e-03
3.299660999999999603e+03,3.459505160516442857e-01,1.783291337441816893e-03
3.301589000000000397e+03,3.458620677147976608e-01,-4.524217107784167524e-04
3.303518000000000029e+03,3.457610437289950767e-01,-3.539680303427328312e-03
3.305447000000000116e+03,3.456474867213437108e-01,-6.518564167626195172e-03
3.307375000000000000e+03,3.455214653042375517e-01,-6.600457420483873960e-03
3.309302999999999884e+03,3.453829238562349246e-01,-8.832452376871469113e-03
3.311231999999999971e+03,3.452317807773717107e-01,-9.917976479953516389e-03
3.313159999999999854e+03,3.450681927737910826e-01,-7.632731342348986203e-03
3.315089000000000397e+03,3.448919901483975536e-01,-7.856126800121376874e-03
3.317017000000000280e+03,3.447033555892389245e-01,-8.621271805037800107e-03
3.318945999999999913e+03,3.445020934173150806e-01,-9.411662129635178786e-03
3.320875000000000000e+03,3.442882982235460076e-01,-4.298346144399278757e-03
3.322802999999999884e+03,3.440620905841242916e-01,-4.481011592008421474e-03
3.324730999999999767e+03,3.438233629138096603e-01,-8.278456436765502247e-03
3.326659999999999854e+03,3.435719816488287393e-01,-5.430847006689276668e-03
3.328587999999999738e+03,3.433082074229325542e-01,-1.570690032300703365e-03
3.330517000000000280e+03,3.430317666114213182e-01,-1.786597342600781957e-03
3.332445000000000164e+03,3.427429458299506848e-01,-1.203295188429542861e-03
3.334374000000000251e+03,3.424414454719055811e-01,-1.892674409917471934e-03
3.336302000000000135e+03,3.421275781348569467e-01,-7.548775628984927266e-04
3.338230999999999767e+03,3.418010182302815281e-01,-4.762385116232614735e-04
3.340159000000000106e+03,3.414621043376548926e-01,-1.215543818254172237e-03
3.342087999999999738e+03,3.411104848865491590e-01,9.369722165581961804e-04
3.344015999999999622e+03,3.407465244383445224e-01,1.221322214924658311e-03
3.345945000000000164e+03,3.403698454407084739e-01,-5.715767747629385553e-04
3.347873000000000047e+03,3.399808384369258363e-01,-6.416824622776928777e-04
3.349802000000000135e+03,3.395790998927594728e-01,-1.364538136692239334e-03
3.351730000000000018e+03,3.391650463333988341e-01,-1.775675886164229667e-04
3.353659000000000106e+03,3.387382482427021557e-01,3.513249620601399670e-05
3.355586999999999989e+03,3.382991481277635160e-01,3.559763118716752217e-04
3.357515999999999622e+03,3.378472904905365226e-01,7.090103233377664793e-03
3.359444000000000415e+03,3.373831438200198818e-01,9.961113406754318333e-03
3.361373000000000047e+03,3.369062266362625735e-01,5.410978495905993668e-03
3.363302000000000135e+03,3.364167764306600361e-01,-1.085195042501041485e-03
3.365230000000000018e+03,3.359150566798803084e-01,-6.276008913610020556e-03
3.367157999999999902e+03,3.354008168982076654e-01,-5.010493818906169849e-03
3.369086999999999989e+03,3.348737806213897272e-01,-3.680396790813222907e-03
3.371014999999999873e+03,3.343344942841390832e-01,-4.905679938800311390e-03
3.372944000000000415e+03,3.337823984607943828e-01,-7.659350076191451251e-03
3.374872000000000298e+03,3.332180655679621850e-01,-1.786623304861567618e-03
3.376800999999999931e+03,3.326409101980836169e-01,1.477191517792242337e-03
3.378729000000000269e+03,3.320515307496769708e-01,3.377438179059666368e-03
3.380657999999999902e+03,3.314493158332716405e-01,2.681925471412327511e-03
3.382585999999999785e+03,3.308348898292834406e-01,-2.419369656150305303e-03
3.384514999999999873e+03,3.302076153663477953e-01,-4.404554615072608925e-03
3.386442999999999756e+03,3.295681428067815943e-01,1.837020278703249687e-03
3.388372000000000298e+03,3.289158087973156341e-01,5.584113910985344376e-03
3.390300000000000182e+03,3.282512896821749848e-01,-2.817426115306886913e-04
3.392229000000000269e+03,3.275738961261751570e-01,-1.238295569674807695e-03
3.394157000000000153e+03,3.268843304554565066e-01,5.820106088058718541e-03
3.396085999999999785e+03,3.261818773529263638e-01,6.299959097838758737e-03
3.398014000000000124e+03,3.254672651266297123e-01,6.178275142345146520e-03
3.399942999999999756e+03,3.247397524775692546e-01,4.461051356099421383e-03
3.401870999999999640e+03,3.240000936956946020e-01,-1.877663644682225907e-03
3.403800000000000182e+03,3.232475215001038293e-01,-4.078244835636901655e-04
3.405728000000000065e+03,3.224828161626511758e-01,2.144637848787933621e-03
3.407657000000000153e+03,3.217051844205300881e-01,9.606062735487697068e-04
3.409585000000000036e+03,3.209154325274994335e-01,2.446756373412739549e-03
3.411514000000000124e+03,3.201127412388480309e-01,8.573299880335838452e-03
3.413442000000000007e+03,3.192979427902393752e-01,1.553356130622063347e-02
3.415370999999999640e+03,3.184701919550576577e-01,6.420053832544958539e-03
3.417299000000000433e+03,3.176303469508710009e-01,-3.107236732908802423e-03
3.419228000000000065e+03,3.167775365691589684e-01,-1.423386675929672052e-02
3.421155999999999949e+03,3.159126450093943106e-01,-1.337438561845294416e-02
3.423085000000000036e+03,3.150347750811519631e-01,-3.410876487860647899e-03
3.425012999999999920e+03,3.141448369658093043e-01,6.882129646283985380e-04
3.426942000000000007e+03,3.132419074910366419e-01,8.908796476241320761e-04
3.428869999999999891e+03,3.123269228201159819e-01,1.822095575308324555e-03
3.430799000000000433e+03,3.113989337988165573e-01,2.620234542503041553e-03
3.432727000000000317e+03,3.104589025723143436e-01,5.327926922197967485e-03
3.434655999999999949e+03,3.095058540044846040e-01,7.702369832275124395e-03
3.436584000000000287e+03,3.085407762224079420e-01,4.765762655316585494e-03
3.438512999999999920e+03,3.075626681080443348e-01,1.792719123367092493e-03
3.440440999999999804e+03,3.065725437703861189e-01,2.275798963315978085e-04
3.442369999999999891e+03,3.055693761094993022e-01,-1.206259708200541070e-03
3.444297999999999774e+03,3.045542052162630853e-01,1.170790919151620812e-03
3.446227000000000317e+03,3.035259780088388482e-01,-6.843337724405262890e-03
3.448155000000000200e+03,3.024857605600281829e-01,-8.909473653242017122e-03
3.450084000000000287e+03,3.014324738060771836e-01,4.629514136417434145e-03
3.452012000000000171e+03,3.003672098016849645e-01,1.242456636155475636e-02
3.453940999999999804e+03,2.992888635012036502e-01,1.370773566404626109e-02
3.455869000000000142e+03,2.981985529412334301e-01,1.090486335185669731e-02
3.457797999999999774e+03,2.970951470942218009e-01,1.584502913085161779e-02
3.459725999999999658e+03,2.959797899786735798e-01,2.094631915720501780e-02
3.461655000000000200e+03,2.948513245851316356e-01,1.548257555399290553e-02
3.463583000000000084e+03,2.937109209140054134e-01,1.895023227814185418e-02
3.465512000000000171e+03,2.925573959739331542e-01,2.556982616240954798e-02
3.467440000000000055e+03,2.913919457472289309e-01,3.453787339019509517e-02
3.469369000000000142e+03,2.902133612606263569e-01,3.604417468001397395e-02
3.471297000000000025e+03,2.890228644783441325e-01,4.280740295093421466e-02
3.473225999999999658e+03,2.878192204452112435e-01,4.729594418610760798e-02
3.475154000000000451e+03,2.866036771073510181e-01,4.814744362228262631e-02
3.477083000000000084e+03,2.853749735276878141e-01,6.151248975875533986e-02
3.479010999999999967e+03,2.841343836342495877e-01,6.711078563457073543e-02
3.480940000000000055e+03,2.828806205080560687e-01,6.342560920287354520e-02
3.482867999999999938e+03,2.816149840590398412e-01,6.283547196198346896e-02
3.484797000000000025e+03,2.803361613863195601e-01,6.952780522366630578e-02
3.486724999999999909e+03,2.790454783817217788e-01,6.998682954840651504e-02
3.488654000000000451e+03,2.777415961624711827e-01,7.223676216184449217e-02
3.490582000000000335e+03,2.764258666022989530e-01,7.739466207292089450e-02
3.492510999999999967e+03,2.750969248365144892e-01,7.515813776976143501e-02
3.494439000000000306e+03,2.737561487207642585e-01,7.060310309559092445e-02
3.496367999999999938e+03,2.724021474084494798e-01,7.283591102407482865e-02
3.498295999999999822e+03,2.710363247371212481e-01,8.007667572662890976e-02
3.500224999999999909e+03,2.696572638782761544e-01,7.811673519422335232e-02
3.502152999999999793e+03,2.682663946513699216e-01,6.631391142375697711e-02
3.504082000000000335e+03,2.668622742459945130e-01,6.023464954439017305e-02
3.506010000000000218e+03,2.654463584635102791e-01,8.159877988863062370e-02
3.507939000000000306e+03,2.640171785116045555e-01,9.203398859304812163e-02
3.509867000000000189e+03,2.625762161735423206e-01,9.729316085536510172e-02
3.511795999999999822e+03,2.611219766751098348e-01,1.196509403136061245e-01
3.513724000000000160e+03,2.596559677814660461e-01,1.343492880540573253e-01
3.515652999999999793e+03,2.581766687365032453e-01,1.459746684098872649e-01
3.517580999999999676e+03,2.566856132872814555e-01,1.566727110286869618e-01
3.519510000000000218e+03,2.551812546957883399e-01,1.677086819250184213e-01
3.521438000000000102e+03,2.536651526909885490e-01,1.710032659208522432e-01
3.523367000000000189e+03,2.521357345529651184e-01,1.741303034745507183e-01
3.525295000000000073e+03,2.505945859925873265e-01,1.895561328202122198e-01
3.527224000000000160e+03,2.490401083080335809e-01,1.766825690764148860e-01
3.529152000000000044e+03,2.474739131920777879e-01,1.702560296120649852e-01
3.531080999999999676e+03,2.458943759609937274e-01,1.767196292948414182e-01
3.533009000000000015e+03,2.443031342894634861e-01,1.823934185007667352e-01
3.534938000000000102e+03,2.426985375118455579e-01,1.777891731080338822e-01
3.536865999999999985e+03,2.410822492847373155e-01,1.700531657716854994e-01
3.538795000000000073e+03,2.394525929605926251e-01,1.786182062355736733e-01
3.540722999999999956e+03,2.378112581779028289e-01,1.806042619952301642e-01
3.542652000000000044e+03,2.361565423072278236e-01,1.578950885476180233e-01
3.544579999999999927e+03,2.344901609689600264e-01,1.244416677526358761e-01
3.546509000000000015e+03,2.328103855517547061e-01,1.146065258719581870e-01
3.548436999999999898e+03,2.311189576579089078e-01,1.381722774634388529e-01
3.550365999999999985e+03,2.294141226941732725e-01,1.443832184713853550e-01
3.552294000000000324e+03,2.276976482447530259e-01,1.260239470559114672e-01
3.554222999999999956e+03,2.259677537344870757e-01,1.528713249484625614e-01
3.556150999999999840e+03,2.242262327294852753e-01,1.860489257184978484e-01
3.558079999999999927e+03,2.224712786726890101e-01,2.066383209563107393e-01
3.560007999999999811e+03,2.207047111121092087e-01,2.215877606764204977e-01
3.561936999999999898e+03,2.189246975087826286e-01,2.361618691939537662e-01
3.563864999999999782e+03,2.171330833926248260e-01,2.302536842685283247e-01
3.565794000000000324e+03,2.153280102427679310e-01,1.938673831719790464e-01
3.567722000000000207e+03,2.135113495710321274e-01,2.205696521293849521e-01
3.569650999999999840e+03,2.116812168746449174e-01,3.158029383270863910e-01
3.571579000000000178e+03,2.098395096473311128e-01,3.697377047598418009e-01
3.573507999999999811e+03,2.079843174044135878e-01,3.690530917778405140e-01
3.575435999999999694e+03,2.061175636215217821e-01,3.254669162053449583e-01
3.577364999999999782e+03,2.042373118320739422e-01,2.685490539122450393e-01
3.579292999999999665e+03,2.023455114936041355e-01,2.066489235040775974e-01
3.581222000000000207e+03,2.004402001576259806e-01,1.599076124872960136e-01
3.583150000000000091e+03,1.985233532635781728e-01,1.256851797399773929e-01
3.585079000000000178e+03,1.965929823810697030e-01,8.497603910602258281e-02
3.587007000000000062e+03,1.946510889314438941e-01,2.166828036829349102e-02
3.588935999999999694e+03,1.926956585024086621e-01,3.917325477630528852e-02
3.590864000000000033e+03,1.907287184972012994e-01,7.591295718682999905e-02
3.592792999999999665e+03,1.887482285216357525e-01,5.563266497040286751e-02
3.594720999999999549e+03,1.867562419608539415e-01,4.052309023886824235e-02
3.596650000000000091e+03,1.847506924387580796e-01,5.612424959246808953e-02
3.598577999999999975e+03,1.827336593223947148e-01,6.230807819499606381e-02
3.600507000000000062e+03,1.807030502537685379e-01,6.504358755733097297e-02
3.602434999999999945e+03,1.786609705818271721e-01,7.716450476212122211e-02
3.604364000000000033e+03,1.766053019666706803e-01,8.085411989142166078e-02
3.606291999999999916e+03,1.745381757391548661e-01,4.724880833875477748e-02
3.608220999999999549e+03,1.724574475774645066e-01,1.406983639223691185e-02
3.610149000000000342e+03,1.703652747943706913e-01,2.880770402770371774e-02
3.612077999999999975e+03,1.682594870861500169e-01,1.581610419534662526e-02
3.614005999999999858e+03,1.661422677474782006e-01,-4.379244096218481985e-03
3.615934999999999945e+03,1.640114204927272112e-01,1.283816986126806725e-02
3.617862999999999829e+03,1.618691545984773938e-01,-1.311108532624949419e-03
