baseline wavenumber (cm-1),baseline absorbance (cm-1),baseline-subtracted absorbance (cm-1)
3149.238,0.153893755825,-8.881784197e-15
3151.167,0.152197560303,-0.000260002055499
3153.095,0.150511473246,-0.012071585082
3155.023,0.148834612947,-0.0173015281376
3156.952,0.147166116844,-0.0246171886051
3158.881,0.145506857073,-0.0281648253857
3160.809,0.143857686618,-0.0173581526011
3162.738,0.142216894722,-0.00187020320271
3164.666,0.140586182568,0.00557225172796
3166.594,0.138964697173,-0.00802713892491
3168.523,0.137351604695,-0.0159434033906
3170.452,0.13574774855,-0.0230198827528
3172.38,0.134153952999,-0.0327457516941
3174.309,0.132568564728,-0.0340485274495
3176.237,0.130993227479,-0.0305710466772
3178.166,0.129426307083,-0.0161765400747
3180.094,0.127869428135,0.00103271538788
3182.022,0.126321775945,0.00434364810012
3183.951,0.124782554968,0.00199190915162
3185.88,0.123252570322,-0.0085144528946
3187.808,0.121732607977,-0.0147260842117
3189.737,0.120221091207,-0.0111903363138
3191.665,0.118719587162,-0.0204688881876
3193.594,0.117226538267,-0.0230960629645
3195.522,0.115743492524,-0.0114387394956
3197.45,0.114269673539,-0.00869837810601
3199.379,0.112804324063,-0.025206933569
3201.308,0.111348210918,-0.0323482109181
3203.236,0.109902081778,-0.00725343312916
3205.165,0.108464436508,-0.0180170926125
3207.093,0.107036765669,-0.041333131
3209.021,0.105618321588,-0.0313294119888
3210.95,0.104208375737,-0.0218654120836
3212.878,0.102808389957,-0.0305781942441
3214.807,0.101416911981,-0.0343954767528
3216.736,0.100034670337,-0.0389302900945
3218.664,0.0986623744017,-0.0397322718854
3220.593,0.0972986006325,-0.0324421234657
3222.521,0.0959447629988,-0.0197117713865
3224.449,0.0946001521229,-0.0116765733718
3226.378,0.0932640777723,-0.0179378895151
3228.306,0.0919379251977,-0.0100143464466
3230.235,0.0906203187223,-0.00129692636438
3232.164,0.0893119485784,-0.00801371931466
3234.092,0.0880134858486,-0.00561087634257
3236.021,0.0867235835799,-0.00469003278773
3237.949,0.0854435791514,-0.0114202799902
3239.877,0.0841728014808,-0.0120106393186
3241.806,0.0829105986307,0.000709159058045
3243.734,0.0816582792614,-0.00484560451765
3245.663,0.0804145442864,-0.021090219962
3247.592,0.079180045643,-0.0300924407968
3249.52,0.0779554161185,-0.0233421821949
3251.448,0.0767400133518,-0.00682295836575
3253.377,0.075533214127,0.0150865435617
3255.305,0.0743362696616,0.0232191823421
3257.234,0.073147938312,0.0208940001782
3259.162,0.0719694521479,-0.00335062642565
3261.091,0.0707995886734,-0.0160773146753
3263.02,0.0696389615305,0.000786947136771
3264.948,0.0684881652113,0.00675321409909
3266.876,0.0673465956498,-0.0136671921083
3268.805,0.0662136679255,-0.0102369670868
3270.733,0.0650905566654,0.0080799931948
3272.662,0.0639760968163,0.00875176898058
3274.591,0.0628708732987,-0.00335642781877
3276.519,0.0617754518834,-0.00630853669235
3278.448,0.060688696241,0.0040102785959
3280.376,0.059611733127,0.0205700003306
3282.304,0.0585439967708,0.0174876900885
3284.233,0.057484940547,-0.00504878024878
3286.161,0.0564356624921,-0.0314496419889
3288.09,0.0553950741435,-0.0293801626803
3290.019,0.0543637221264,-0.00906549286268
3291.947,0.0533421339164,0.00407538705289
3293.875,0.0523297724641,0.0125416161659
3295.804,0.0513261198657,0.0172927058566
3297.732,0.0503322167147,0.00862677676149
3299.661,0.0493470319914,0.00565017210921
3301.589,0.0483715871418,-0.00541818546428
3303.518,0.0474048702936,-0.0139137239749
3305.447,0.0464473897771,0.00818821134128
3307.375,0.0454996347723,0.0106066094029
3309.303,0.0445611065253,0.0178769177059
3311.232,0.0436313254273,0.0298272020657
3313.16,0.0427112554816,0.0265636746209
3315.089,0.0417999422588,0.0103286691112
3317.017,0.0408983306144,-0.0131602131867
3318.946,0.0400054852668,0.010172520325
3320.875,0.0391218762507,0.0281129792945
3322.803,0.0382479544511,0.0243736671705
3324.731,0.0373832594094,0.0117621273567
3326.66,0.0365273498119,0.0098118859756
3328.588,0.0356811130715,0.0155882252323
3330.517,0.0348436713492,0.00658782911683
3332.445,0.03401589291,0.00777814250469
3334.374,0.0331969190628,0.0133240501823
3336.302,0.032387598925,0.01129087265
3338.231,0.0315870929529,0.00656947741054
3340.159,0.0307962311164,0.00434169991805
3342.088,0.0300141930195,0.0247723866637
3344.016,0.0292417894843,0.0312195339081
3345.945,0.0284782192624,0.0187230854906
3347.873,0.0277242740286,0.00202223109724
3349.802,0.0269791716818,-0.0071469256427
3351.73,0.0262436847493,0.0142306861734
3353.659,0.0255170502777,0.0435230242796
3355.587,0.0248000216464,0.0554898199193
3357.516,0.02409185505,0.0705344264039
3359.444,0.02339328472,0.0618592781877
3361.373,0.0227035859987,0.0514240934049
3363.302,0.0220231236089,0.0330439779754
3365.23,0.0213522431238,0.0134296767271
3367.158,0.0206905893965,0.00800745347394
3369.087,0.0200378264254,0.00603579892409
3371.015,0.0193946309994,-0.00540861049615
3372.944,0.0187603359034,0.000322609110571
3374.872,0.0181355987787,0.0254916146416
3376.801,0.0175197715579,0.0408176002968
3378.729,0.0169134927345,0.0349355287007
3380.658,0.0163161333887,0.0258432328741
3382.586,0.0157283128667,0.00870598349863
3384.515,0.0151494213961,0.0225998796291
3386.443,0.0145800591753,0.0333258122133
3388.372,0.0140196355798,0.0346718835255
3390.3,0.0134687316604,0.0254483233256
3392.229,0.01292677594,0.030413391814
3394.157,0.0123943303219,0.0445124730332
3396.086,0.0118708424766,0.0442242181012
3398.014,0.0113568551598,0.0361948689781
3399.943,0.0108518351897,0.0297092086128
3401.871,0.0103563061742,0.018299798206
3403.8,0.00986975407916,0.0202131909348
3405.728,0.009392683365,0.0211171022827
3407.657,0.00892459914508,0.0435087652538
3409.585,0.00846598673224,0.0765973869863
3411.514,0.00801637038744,0.0693182055678
3413.442,0.00757621627591,0.0368953587474
3415.371,0.00714506780623,0.0342780449617
3417.299,0.00672337199602,0.0453884639779
3419.228,0.00631069140146,0.0540555714131
3421.156,0.00590745389256,0.05472441936
3423.085,0.00551324117313,0.0360897411195
3425.013,0.00512846196553,0.0131026657139
3426.942,0.00475271712122,0.0227896873522
3428.87,0.00438639621494,0.0434598293209
3430.799,0.00402911924575,0.0578450652836
3432.727,0.00368125664079,0.0466132447572
3434.656,0.00334244754672,0.0535727435064
3436.584,0.00301304324307,0.0586430611372
3438.513,0.00269270202412,0.0405412215546
3440.441,0.00238175602178,0.0180702477061
3442.37,0.00207988267796,0.0162649449083
3444.298,0.00178739497693,0.0252638631778
3446.227,0.00150398950822,0.0383142770342
3448.155,0.00122996010851,0.0532593222773
3450.084,0.000965022514926,0.0696044089855
3452.012,0.000709451416528,0.0571041552936
3453.941,0.000462981698066,0.0561194973327
3455.869,0.00022586890098,0.0820005989462
3457.798,-2.13294236318e-06,0.0769406231567
3459.726,-0.000220787438137,0.0788945991809
3461.655,-0.000430321406355,0.0881442077064
3463.583,-0.000630517600815,0.0596426331647
3465.512,-0.000821583693913,0.0632307169651
3467.44,-0.00100332158706,0.0772130140381
3469.369,-0.00117591980504,0.110518883458
3471.297,-0.00133919939687,0.126757652333
3473.226,-0.00149332973973,0.11486332042
3475.154,-0.00163815103025,0.0876847493527
3477.083,-0.00177381349798,0.0879928256135
3479.011,-0.00190017648719,0.107645749647
3480.94,-0.0020173710798,0.126369654398
3482.868,-0.0021252757677,0.120320056756
3484.797,-0.00222400248519,0.120045996893
3486.725,-0.00231344887177,0.112929478695
3488.654,-0.00239370771414,0.124772086093
3490.582,-0.00246469579941,0.150656680888
3492.511,-0.00252648676666,0.144377372135
3494.439,-0.00257901655061,0.140204366038
3496.368,-0.00262233964274,0.143128397425
3498.296,-0.00265641112538,0.138023605906
3500.225,-0.00268126634239,0.143542403341
3502.153,-0.00269687952371,0.137048230875
3504.082,-0.0027032668656,0.132139427164
3506.01,-0.00270042174561,0.147433879341
3507.939,-0.00268834121238,0.1697414633
3509.867,-0.00266703779108,0.158692200885
3511.796,-0.00263648938272,0.146128567668
3513.724,-0.00259672766011,0.164935963448
3515.653,-0.00254771137664,0.196689370277
3517.581,-0.00248949135271,0.224869733664
3519.51,-0.00242200719411,0.229844187996
3521.438,-0.00234532886887,0.214606279475
3523.367,-0.00225937683515,0.221824148503
3525.295,-0.00216424020859,0.235168900041
3527.224,-0.00205982029976,0.24572897221
3529.152,-0.00194622537189,0.237586486322
3531.081,-0.00182333758793,0.220934241595
3533.009,-0.00169128435875,0.200006289019
3534.938,-0.00154992869967,0.188955334105
3536.866,-0.00139941716917,0.171892427421
3538.795,-0.00123959363497,0.170278736226
3540.723,-0.00107062380316,0.167510511967
3542.652,-0.000892332393843,0.181057290455
3544.58,-0.000704904260717,0.192236125137
3546.509,-0.000508144976274,0.172823149636
3548.437,-0.00030225854184,0.171328353602
3550.366,-8.70313822752e-05,0.173333070525
3552.294,0.000137313353473,0.154648334363
3554.223,0.000371008388161,0.155382952469
3556.151,0.000613811425223,0.175832600504
3558.08,0.00086597433503,0.198649403111
3560.008,0.0011272356734,0.220268850068
3561.937,0.00139786645833,0.235327203439
3563.865,0.00167758609802,0.266849906912
3565.794,0.00196668475807,0.297003492316
3567.722,0.00226486269908,0.323040822296
3569.651,0.00257242923424,0.347184327523
3571.579,0.00288906547656,0.368362565465
3573.508,0.00321509988685,0.374413977466
3575.436,0.00355019443048,0.317356608925
3577.365,0.00389469671589,0.23949486526
3579.293,0.00424824956083,0.192268991818
3581.222,0.00461121972137,0.172999218303
3583.15,0.00498323086762,0.157638390754
3585.079,0.00536466890328,0.124900009568
3587.007,0.00575513835085,0.103683817847
3588.936,0.00615504426162,0.0876799976769
3590.864,0.00656397201051,0.0711583019876
3592.793,0.0069823457964,0.0752292105876
3594.721,0.0074097318466,0.0709080687126
3596.65,0.00784657350762,0.0684973221121
3598.578,0.00829241785913,0.0716479362881
3600.507,0.00874772739527,0.0716306509831
3602.435,0.00921203004809,0.0470554443228
3604.364,0.00968580745935,0.0415732792135
3606.292,0.0101685684135,0.070950723292
3608.221,0.0106608136999,0.0709887669152
3610.149,0.0111620329553,0.0166012475666
3612.078,0.0116727461168,-0.0116727461168
3614.006,0.0121924236736,-0.00235551780219
3615.935,0.0127216047102,0.0387164195209
3617.863,0.0132597405683,0.042983502675
3619.792,0.01380738948,0.00782914360478
3621.72,0.0143639836394,0.000425391943065
3623.649,0.0149301004263,0.0191248855942
3625.577,0.015505152887,0.00852932987164
3627.506,0.016089737549,0.0165905979589
3629.434,0.016683248311,0.0397063136648
3631.363,0.0172863008481,0.0114052182572
3633.291,0.0178982699114,0.00554627808485
3635.22,0.0185197903237,0.00857247435482
3637.148,0.0191502176883,0.00462797429679
3639.077,0.0197902059756,0.0117102600076
3641.005,0.0204390916416,0.0276466492717
3642.934,0.0210975478041,0.0374737476293
3644.862,0.0217648917713,0.0116833840907
3646.791,0.0224418158089,0.0177128906216
3648.719,0.0231276180775,0.0426654853708
3650.648,0.0238230099902,0.021374566897
3652.576,0.0245272705601,0.00988093074462
3654.505,0.025241130348,0.0090915816744
3656.433,0.0259638492192,0.0119951442571
3658.362,0.0266961768821,0.00308294706941
3660.29,0.0274373540547,-0.00566754976761
3662.219,0.0281881495927,-0.00371937046878
3664.147,0.0289477850666,-0.00650044117095
3666.076,0.0297170484798,-0.00432469060465
3668.004,0.0304951422549,0.00191399101629
3669.933,0.0312828735432,0.0176369773421
3671.861,0.0320794256197,0.0176195492172
3673.79,0.0328856247831,0.0238981590006
3675.718,0.0337006351609,0.00339069755111
3677.647,0.0345253021995,-0.019781592973
3679.575,0.0353587708786,-0.0208611007947
3681.504,0.0362019057923,-0.0126417939563
3683.432,0.0370538327727,0.000359028364345
3685.361,0.0379154355615,0.00487207608812
3687.289,0.0387858208432,0.0174974969574
3689.218,0.0396658915071,0.0266155623606
3691.146,0.0405547350901,0.00362793033391
3693.075,0.0414532736292,-0.0053610089507
3695.003,0.0423605755135,-0.0125684040317
3696.932,0.0432775819277,-0.00893834614017
3698.86,0.0442033421133,-0.00986410632583
