wavenumber (/cm),baseline value (/cm),baseline-subtracted absorbance (/cm),
3.290019000000000233e+03,3.619152882980376518e-01,-4.440892098500626162e-16
3.291947000000000116e+03,3.613199933024091592e-01,-3.814196424992921663e-03
3.293875000000000000e+03,3.607153728177134866e-01,-5.393066433418525207e-03
3.295804000000000087e+03,3.601011059875460774e-01,-5.210860199943212479e-03
3.297731999999999971e+03,3.594778296878367030e-01,-4.086733691546218239e-03
3.299660999999999603e+03,3.588448973664029040e-01,-4.742063786147276971e-04
3.301589000000000397e+03,3.582029652516798279e-01,-1.671043780045344818e-03
3.303518000000000029e+03,3.575513674389796392e-01,-6.038768892062673643e-03
3.305447000000000116e+03,3.568904344609542534e-01,-7.450026360783290613e-03
3.307375000000000000e+03,3.562205162052727303e-01,-1.097395568587167247e-02
3.309302999999999884e+03,3.555412724605169217e-01,-9.400446985172283831e-03
3.311231999999999971e+03,3.548523436652857299e-01,-3.928707863770419806e-03
3.313159999999999854e+03,3.541544441055179959e-01,-3.756529476879322260e-04
3.315089000000000397e+03,3.534468498190150854e-01,-1.495234422508318062e-03
3.317017000000000280e+03,3.527302944442336496e-01,-3.806267985377864704e-04
3.318945999999999913e+03,3.520040346664661257e-01,-9.814654903950170706e-04
3.320875000000000000e+03,3.512684397233769573e-01,-4.568022348202305238e-03
3.322802999999999884e+03,3.505238982076352983e-01,-6.460673597957988790e-03
3.324730999999999767e+03,3.497700312028264591e-01,-4.239810148567002557e-03
3.326659999999999854e+03,3.490064404425243794e-01,-2.734991996087288157e-03
3.328587999999999738e+03,3.482339176227000621e-01,3.523695609639165838e-03
3.330517000000000280e+03,3.474516613711315927e-01,6.716679949011261641e-03
3.332445000000000164e+03,3.466604827362917973e-01,5.748699517534205938e-03
3.334374000000000251e+03,3.458595609934587145e-01,1.800046364711871405e-03
3.336302000000000135e+03,3.450497265436069938e-01,-3.658695479824558561e-05
3.338230999999999767e+03,3.442301393095039685e-01,6.065114980185359883e-03
3.340159000000000106e+03,3.434016490446367698e-01,5.898861080575912297e-03
3.342087999999999738e+03,3.425633963192673548e-01,-5.630871524715530541e-04
3.344015999999999622e+03,3.417162502393846779e-01,4.692777431043460012e-03
3.345945000000000164e+03,3.408593320227488732e-01,8.728703222266265271e-03
3.347873000000000047e+03,3.399935301278542710e-01,7.818341877093182291e-03
3.349802000000000135e+03,3.391179464199520766e-01,9.076519494409573952e-03
3.351730000000000018e+03,3.382334887100419962e-01,1.306887641594389748e-02
3.353659000000000106e+03,3.373392395108751884e-01,9.438469563170848176e-03
3.355586999999999989e+03,3.364361259859478537e-01,1.065616030250593482e-02
3.357515999999999622e+03,3.355232112955128798e-01,1.073200589416112294e-02
3.359444000000000415e+03,3.346014419555753960e-01,1.079197279168120360e-02
3.361373000000000047e+03,3.336698617738722561e-01,1.188509262402570599e-02
3.363302000000000135e+03,3.327289464268456953e-01,1.341497071645392225e-02
3.365230000000000018e+03,3.317791909459497646e-01,8.070090241250937879e-03
3.367157999999999902e+03,3.308201099759848773e-01,2.549035177826119991e-03
3.369086999999999989e+03,3.298511988117471816e-01,5.947224437596432267e-03
3.371014999999999873e+03,3.288734620267668163e-01,8.614557759909047263e-03
3.372944000000000415e+03,3.278858853712609545e-01,6.838956180756916581e-03
3.374872000000000298e+03,3.268894927712651111e-01,6.704571226261446526e-03
3.376800999999999931e+03,3.258832506244964122e-01,1.065330834907030066e-02
3.378729000000000269e+03,3.248682022094850907e-01,1.291043436494732077e-02
3.380657999999999902e+03,3.238432945714482258e-01,9.933950752404552276e-03
3.382585999999999785e+03,3.228095903414267553e-01,6.952351226049646726e-03
3.384514999999999873e+03,3.217660172121217244e-01,7.286386559713697864e-03
3.386442999999999756e+03,3.207136571670829994e-01,1.070387259022176352e-02
3.388372000000000298e+03,3.196514185465133551e-01,8.534545280971972403e-03
3.390300000000000182e+03,3.185804026864627048e-01,7.407385225116414063e-03
3.392229000000000269e+03,3.174994985746231180e-01,2.169692954207214086e-03
3.394157000000000153e+03,3.164098268995569896e-01,-4.521827505379327761e-04
3.396085999999999785e+03,3.153102572964527894e-01,3.300810874826254349e-03
3.398014000000000124e+03,3.142019298063729593e-01,5.549963840249638736e-03
3.399942999999999756e+03,3.130836947120005931e-01,9.214960412438966131e-03
3.401870999999999640e+03,3.119567114069070612e-01,1.243113833803111135e-02
3.403800000000000182e+03,3.108198108212665289e-01,1.273019690790366809e-02
3.405728000000000065e+03,3.096741717011575190e-01,1.418886740844271799e-02
3.407657000000000153e+03,3.085186056242559260e-01,8.370403496165135238e-03
3.409585000000000036e+03,3.073543106891296617e-01,6.361874192614358492e-03
3.411514000000000124e+03,3.061800791209599026e-01,4.806162956641379935e-03
3.413442000000000007e+03,3.049971283708199365e-01,7.050328732287614031e-03
3.415370999999999640e+03,3.038042313113820114e-01,7.476492138919876851e-03
3.417299000000000433e+03,3.026026247462301200e-01,2.720454555053208878e-03
3.419228000000000065e+03,3.013910621955258051e-01,-6.425843460017510722e-03
3.421155999999999949e+03,3.001707998153602119e-01,-1.064382501245386692e-02
3.423085000000000036e+03,2.989405717733859547e-01,1.130536589576180972e-03
3.425012999999999920e+03,2.977016535782066597e-01,8.049621734825151975e-03
3.426942000000000007e+03,2.964527600449677891e-01,2.977600134349778216e-03
3.428869999999999891e+03,2.951951860347730161e-01,-1.357653185800611340e-03
3.430799000000000433e+03,2.939276270102677557e-01,-2.658497314796282041e-03
3.432727000000000317e+03,2.926513971850575047e-01,5.283833065186094302e-04
3.434655999999999949e+03,2.913651726692840782e-01,9.613074667500498549e-04
3.436584000000000287e+03,2.900702870290601254e-01,7.544153978997769627e-04
3.438512999999999920e+03,2.887653970220220856e-01,-1.700162828174089924e-03
3.440440999999999804e+03,2.874518555667844311e-01,3.012747470196863731e-04
3.442369999999999891e+03,2.861283000684800015e-01,-6.405894485999041876e-04
3.444297999999999774e+03,2.847961027982268689e-01,-9.446574434575083501e-04
3.446227000000000317e+03,2.834538818086542733e-01,-8.865073646650234451e-03
3.448155000000000200e+03,2.821030287233892153e-01,-1.060125101431497185e-02
3.450084000000000287e+03,2.807421422425484536e-01,2.918392616008347318e-03
3.452012000000000171e+03,2.793726333422679176e-01,5.547756207894494196e-03
3.453940999999999804e+03,2.779930813701625425e-01,1.832239390387790934e-03
3.455869000000000142e+03,2.766049166548665283e-01,4.572235918947065159e-03
3.457797999999999774e+03,2.752066991914929872e-01,6.149770123702769098e-03
3.459725999999999658e+03,2.737998786611850477e-01,9.583951915411503819e-03
3.461655000000000200e+03,2.723829957065433405e-01,8.165775355444715444e-03
3.463583000000000084e+03,2.709575193612216992e-01,1.040822495783899626e-02
3.465512000000000171e+03,2.695219709153153786e-01,1.535049778154773392e-02
3.467440000000000055e+03,2.680778387549764830e-01,1.955162484063377448e-02
3.469369000000000142e+03,2.666236248178037727e-01,2.380302535996747793e-02
3.471297000000000025e+03,2.651608368424511752e-01,2.309932701595096560e-02
3.473225999999999658e+03,2.636879574140120752e-01,2.491615450436857060e-02
3.475154000000000451e+03,2.622065136236457761e-01,2.992828309918671437e-02
3.477083000000000084e+03,2.607149687039367336e-01,3.879809359317309969e-02
3.479010999999999967e+03,2.592148690985585091e-01,3.417359897997052087e-02
3.480940000000000055e+03,2.577046586875830769e-01,1.921140252744280019e-02
3.482867999999999938e+03,2.561859032671893743e-01,2.294611095448395588e-02
3.484797000000000025e+03,2.546570273649475524e-01,3.439846807484236990e-02
3.486724999999999909e+03,2.531196161295401481e-01,3.304362393847748436e-02
3.488654000000000451e+03,2.515720747360319365e-01,3.340782942226194763e-02
3.490582000000000335e+03,2.500160076856072777e-01,3.800687065725893987e-02
3.492510999999999967e+03,2.484498008008326764e-01,4.139793455239049180e-02
3.494439000000000306e+03,2.468750779353943159e-01,4.279797817837938112e-02
3.496367999999999938e+03,2.452902055593568775e-01,4.447869226101763829e-02
3.498295999999999822e+03,2.436968268789030390e-01,5.121892516932735617e-02
3.500224999999999909e+03,2.420932890115956582e-01,4.895478642510298073e-02
3.502152999999999793e+03,2.404812545161281179e-01,3.562942719665640467e-02
3.504082000000000335e+03,2.388590511575525710e-01,3.559836111636993650e-02
3.506010000000000218e+03,2.372283608470748817e-01,5.589345087034702786e-02
3.507939000000000306e+03,2.355874919972311687e-01,6.089187111917082618e-02
3.509867000000000189e+03,2.339381458717380013e-01,5.790139656140524949e-02
3.511795999999999822e+03,2.322786115306296750e-01,6.811171154867157185e-02
3.513724000000000160e+03,2.306106095901210296e-01,8.564460759955361269e-02
3.515652999999999793e+03,2.289324097577445372e-01,9.309649733763381008e-02
3.517580999999999676e+03,2.272457520022239663e-01,9.447321538067932067e-02
3.519510000000000218e+03,2.255488866785810842e-01,9.543658248203179539e-02
3.521438000000000102e+03,2.238435731080432589e-01,8.625458734952395901e-02
3.523367000000000189e+03,2.221280422931339871e-01,7.778075350219815220e-02
3.525295000000000073e+03,2.204040729075824601e-01,8.432695198034512174e-02
3.527224000000000160e+03,2.186698766014067985e-01,7.539257509128205470e-02
3.529152000000000044e+03,2.169272514008397934e-01,7.954206379470862842e-02
3.531080999999999676e+03,2.151743896033995185e-01,1.018622466618661626e-01
3.533009000000000015e+03,2.134131085878205880e-01,1.143168342163232154e-01
3.534938000000000102e+03,2.116415812991085943e-01,1.063619741190398038e-01
3.536865999999999985e+03,2.098616444685159621e-01,1.019284312773494072e-01
3.538795000000000073e+03,2.080714516885375787e-01,1.066989919658145602e-01
3.540722999999999956e+03,2.062728590429312447e-01,1.072199528290744830e-01
3.542652000000000044e+03,2.044640007716864716e-01,9.685459561106268822e-02
3.544579999999999927e+03,2.026467523110646596e-01,7.201934754981120790e-02
3.546509000000000015e+03,2.008192285485534967e-01,6.176772461267709957e-02
3.548436999999999898e+03,1.989833242729179830e-01,8.014637119778944552e-02
3.550365999999999985e+03,1.971371350191422067e-01,9.327405681885503341e-02
3.552294000000000324e+03,1.952825749284876622e-01,8.964631670855149892e-02
3.554222999999999956e+03,1.934177201834472726e-01,1.063921422373290682e-01
3.556150999999999840e+03,1.915445042777808027e-01,1.223857786098374589e-01
3.558079999999999927e+03,1.896609840414704706e-01,1.247152719486366301e-01
3.560007999999999811e+03,1.877691123207902990e-01,1.259748975725476505e-01
3.561936999999999898e+03,1.858669265932135772e-01,1.276336144486784896e-01
3.563864999999999782e+03,1.839563990575179275e-01,1.135810874164349116e-01
3.565794000000000324e+03,1.820355478386730397e-01,6.221472268227357105e-02
3.567722000000000207e+03,1.801063644879672410e-01,5.902410389972834182e-02
3.569650999999999840e+03,1.781668477778559634e-01,1.360246810519485372e-01
3.571579000000000178e+03,1.762190086121346866e-01,1.783419745382754940e-01
3.573507999999999811e+03,1.742608264107552429e-01,1.784204226230992063e-01
3.575435999999999694e+03,1.722943314300202644e-01,1.633549188405014618e-01
3.577364999999999782e+03,1.703174837373744310e-01,1.548278246565044647e-01
3.579292999999999665e+03,1.683323329416257508e-01,1.395004078220165589e-01
3.581222000000000207e+03,1.663368197577135277e-01,1.256372102314662342e-01
3.583150000000000091e+03,1.643330131469475930e-01,1.072893396123664189e-01
3.585079000000000178e+03,1.623188344717689802e-01,6.642749417253490662e-02
3.587007000000000062e+03,1.602963720459928965e-01,8.405888444080744648e-04
3.588935999999999694e+03,1.582635278795461176e-01,2.921753565423079735e-02
3.590864000000000033e+03,1.562224096387527794e-01,8.056689319012422246e-02
3.592792999999999665e+03,1.541708999810413872e-01,7.062659576791574523e-02
3.594720999999999549e+03,1.521111259252325709e-01,4.797466786051529652e-02
3.596650000000000091e+03,1.500409507762530126e-01,5.811718803963827895e-02
3.598577999999999975e+03,1.479625209054322710e-01,6.508045327914047107e-02
3.600507000000000062e+03,1.458736802651845466e-01,5.649917489017175498e-02
3.602434999999999945e+03,1.437765945793501032e-01,6.903063992366442747e-02
3.604364000000000033e+03,1.416690884478359891e-01,8.102066267289398382e-02
3.606291999999999916e+03,1.395533469469860677e-01,5.679848486627747661e-02
3.608220999999999549e+03,1.374271753242073402e-01,3.118930326599267389e-02
3.610149000000000342e+03,1.352927780083437170e-01,4.349451523636194139e-02
3.612077999999999975e+03,1.331479408942968234e-01,2.815519714867775747e-02
3.614005999999999858e+03,1.309948877634177222e-01,1.258449081132395619e-02
3.615934999999999945e+03,1.288313851581044389e-01,3.444037245512898693e-02
3.617862999999999829e+03,1.266596762122116360e-01,1.051763094500035578e-02
