wavenumber (/cm),baseline value (/cm),baseline-subtracted absorbance (/cm),
3.290019000000000233e+03,3.277569948987517634e-01,-4.440892098500626162e-15
3.291947000000000116e+03,3.273758543585829628e-01,-3.803747130092371975e-02
3.293875000000000000e+03,3.269887788647798388e-01,-4.605045764047943635e-02
3.295804000000000087e+03,3.265955630338055471e-01,-1.413382242474714445e-02
3.297731999999999971e+03,3.261966145544406004e-01,1.912569182985324190e-02
3.299660999999999603e+03,3.257915195797140839e-01,-9.568764903566506774e-03
3.301589000000000397e+03,3.253806981147864263e-01,-1.484274789064121691e-02
3.303518000000000029e+03,3.249637239963103497e-01,-1.368114164806755184e-03
3.305447000000000116e+03,3.245408087660148766e-01,1.736752327912327587e-02
3.307375000000000000e+03,3.241121762835952325e-01,2.254263898924380172e-02
3.309302999999999884e+03,3.236776088475421531e-01,9.929594738792069109e-03
3.311231999999999971e+03,3.232368764415660678e-01,-1.955469990732616736e-02
3.313159999999999854e+03,3.227904360199511657e-01,-2.793419857985268706e-02
3.315089000000000397e+03,3.223378244702264084e-01,-1.873989588775604176e-02
3.317017000000000280e+03,3.218795110630479073e-01,-3.021882372369777414e-03
3.318945999999999913e+03,3.214150203695727015e-01,1.354556086400293680e-02
3.320875000000000000e+03,3.209445885642745466e-01,1.475103672556876688e-02
3.322802999999999884e+03,3.204684641396058353e-01,3.152334294031389206e-02
3.324730999999999767e+03,3.199864047613028006e-01,5.023310366349198475e-02
3.326659999999999854e+03,3.194981557803284744e-01,7.594903425112153883e-03
3.328587999999999738e+03,3.190042234164627288e-01,-1.606559302536680889e-02
3.330517000000000280e+03,3.185040952917361778e-01,5.368218821727666068e-03
3.332445000000000164e+03,3.179982899423086096e-01,-1.110053738877070373e-03
3.334374000000000251e+03,3.174862826738316102e-01,2.284916329927089151e-02
3.336302000000000135e+03,3.169686043388413310e-01,5.594606562560411334e-02
3.338230999999999767e+03,3.164447179266165477e-01,6.466055336724618741e-02
3.340159000000000106e+03,3.159151666060635577e-01,5.407787714103795551e-02
3.342087999999999738e+03,3.153794010500874379e-01,-2.079045508272869824e-03
3.344015999999999622e+03,3.148379767439726251e-01,-4.658708788943544121e-02
3.345945000000000164e+03,3.142903320442469450e-01,-7.287048353597747052e-02
3.347873000000000047e+03,3.137370347525676451e-01,-3.897354735111502322e-02
3.349802000000000135e+03,3.131775109090924047e-01,-1.509511795809581614e-02
3.351730000000000018e+03,3.126123406318521702e-01,-1.601935871810988843e-02
3.353659000000000106e+03,3.120409376446255934e-01,2.805644989595235117e-02
3.355586999999999989e+03,3.114638943818226480e-01,2.693925911949124341e-02
3.357515999999999622e+03,3.108806122508465108e-01,3.771886216560105254e-02
3.359444000000000415e+03,3.102916960024826309e-01,4.725120089039025473e-02
3.361373000000000047e+03,3.096965347277560454e-01,3.844537283137139383e-02
3.363302000000000135e+03,3.090954323412082871e-01,2.445612122193807636e-02
3.365230000000000018e+03,3.084887050753515325e-01,-2.138250628110238694e-02
3.367157999999999902e+03,3.078760428558613427e-01,9.838441608506443004e-03
3.369086999999999989e+03,3.072571232936356367e-01,1.637326780236048052e-02
3.371014999999999873e+03,3.066325880885827360e-01,9.372203996746986121e-03
3.372944000000000415e+03,3.060017893826056934e-01,2.939626286658292287e-02
3.374872000000000298e+03,3.053653811919909700e-01,3.441047288128151749e-02
3.376800999999999931e+03,3.047227033422643672e-01,2.263160180536250010e-02
3.378729000000000269e+03,3.040744221660860447e-01,2.471905441452904029e-02
3.380657999999999902e+03,3.034198651726107698e-01,1.100199291982928429e-02
3.382585999999999785e+03,3.027597110108706246e-01,-1.497720985149531003e-02
3.384514999999999873e+03,3.020932748736440132e-01,-1.709636654159929492e-02
3.386442999999999756e+03,3.014212477263411571e-01,2.795423534677654587e-02
3.388372000000000298e+03,3.007429324453649855e-01,3.785576905409371307e-02
3.390300000000000182e+03,3.000590323125003067e-01,8.630576550365809396e-04
3.392229000000000269e+03,2.993688378877727985e-01,-4.012706945370281275e-02
3.394157000000000153e+03,2.986730647693454088e-01,-1.862282516507907104e-02
3.396085999999999785e+03,2.979709912008683403e-01,-4.377700120330896283e-03
3.398014000000000124e+03,2.972633450968782398e-01,2.965438331781200532e-03
3.399942999999999756e+03,2.965493923846524993e-01,-2.012573244503101932e-06
3.401870999999999640e+03,2.958298732950987997e-01,-1.728002835986952590e-03
3.403800000000000182e+03,2.951040414391226108e-01,2.246590754835642301e-02
3.405728000000000065e+03,2.943726493640070885e-01,1.051527767262827595e-02
3.407657000000000153e+03,2.936349383642804511e-01,-9.670647129158993494e-03
3.409585000000000036e+03,2.928916733036022180e-01,-1.140999143623533385e-02
3.411514000000000124e+03,2.921420831601269086e-01,-2.194576224499344974e-02
3.413442000000000007e+03,2.913869451138868527e-01,-3.605690955970564104e-02
3.415370999999999640e+03,2.906254758266593186e-01,-3.076150921667375471e-02
3.417299000000000433e+03,2.898584647948556636e-01,-7.612318376755133897e-04
3.419228000000000065e+03,2.890851163638794574e-01,-4.943827138342182792e-03
3.421155999999999949e+03,2.883062323465139798e-01,6.265571641737910369e-03
3.423085000000000036e+03,2.875210047717882134e-01,3.405342713422498946e-02
3.425012999999999920e+03,2.867302477688600248e-01,8.701530795845435762e-02
3.426942000000000007e+03,2.859331410503829218e-01,1.081424502311132407e-01
3.428869999999999891e+03,2.851305110618929106e-01,5.690303353541725784e-02
3.430799000000000433e+03,2.843215251996662474e-01,3.282432135315982435e-03
3.432727000000000317e+03,2.835070222256135253e-01,4.220601827563008612e-03
3.434655999999999949e+03,2.826861572196373018e-01,2.048743993602730740e-02
3.436584000000000287e+03,2.818597812600209807e-01,1.985841320589276648e-02
3.438512999999999920e+03,2.810270371102943088e-01,9.163873385917842285e-03
3.440440999999999804e+03,2.801887881651161649e-01,1.922599103201250159e-04
3.442369999999999891e+03,2.793441648716408210e-01,-3.461545873468008239e-02
3.444297999999999774e+03,2.784940429408999663e-01,-4.114282946122793660e-02
3.446227000000000317e+03,2.776375405036723976e-01,1.704247186299889805e-02
3.448155000000000200e+03,2.767755455873697201e-01,7.648693702199738098e-02
3.450084000000000287e+03,2.759071640063917030e-01,7.966015706332507662e-02
3.452012000000000171e+03,2.750332961045263147e-01,6.100550432830686987e-02
3.453940999999999804e+03,2.741530353798014019e-01,4.315566766549139288e-02
3.455869000000000142e+03,2.732672944923724145e-01,5.101234687414457625e-02
3.457797999999999774e+03,2.723751546238952770e-01,8.637040110341898114e-02
3.459725999999999658e+03,2.714775407509053551e-01,9.826121330690851252e-02
3.461655000000000200e+03,2.705735217386786573e-01,8.510432646042431770e-02
3.463583000000000084e+03,2.696640348801260245e-01,7.510795460820274272e-02
3.465512000000000171e+03,2.687481367241479902e-01,6.820115992139186289e-02
3.467440000000000055e+03,2.678267768800326465e-01,9.552149951508193126e-02
3.469369000000000142e+03,2.668989995803050519e-01,1.024710730738913611e-01
3.471297000000000025e+03,2.659657667506278855e-01,4.798461197869618999e-02
3.473225999999999658e+03,2.650261103071507307e-01,6.746113656253482915e-02
3.475154000000000451e+03,2.640810044919108535e-01,1.065064124195123085e-01
3.477083000000000084e+03,2.631294689046832502e-01,1.271039520259078515e-01
3.479010999999999967e+03,2.621724901038806621e-01,1.377270306875857386e-01
3.480940000000000055e+03,2.612090753729026105e-01,1.036116078857154399e-01
3.482867999999999938e+03,2.602402235865373115e-01,9.720683159973564358e-02
3.484797000000000025e+03,2.592649297118114760e-01,1.241420883744455139e-01
3.486724999999999909e+03,2.582842049398834661e-01,1.310325364420914518e-01
3.488654000000000451e+03,2.572970319214045176e-01,1.233205287525782623e-01
3.490582000000000335e+03,2.563044341639146850e-01,1.177649737816715003e-01
3.492510999999999967e+03,2.553053820016870645e-01,1.538111738802108164e-01
3.494439000000000306e+03,2.543009112586354092e-01,1.780657605608109151e-01
3.496367999999999938e+03,2.532899799526582285e-01,1.523167598834826997e-01
3.498295999999999822e+03,2.522736362240429742e-01,1.440998372649038295e-01
3.500224999999999909e+03,2.512508257743144569e-01,1.506783750295186408e-01
3.502152999999999793e+03,2.502226090601364916e-01,1.110488393862998358e-01
3.504082000000000335e+03,2.491879194666601904e-01,1.234345878760505499e-01
3.506010000000000218e+03,2.481478297669195143e-01,1.425307913491726808e-01
3.507939000000000306e+03,2.471012610296918766e-01,1.297761543358970648e-01
3.509867000000000189e+03,2.460492983443884896e-01,1.343719414144608493e-01
3.511795999999999822e+03,2.449908504634112916e-01,1.944766097313634923e-01
3.513724000000000160e+03,2.439270147925451937e-01,2.229735880827057315e-01
3.515652999999999793e+03,2.428566877678193237e-01,2.383096439681522405e-01
3.517580999999999676e+03,2.417809791113914031e-01,2.413640201156912468e-01
3.519510000000000218e+03,2.406987729429124201e-01,2.433443558250574235e-01
3.521438000000000102e+03,2.396111913009226768e-01,2.451136502510946613e-01
3.523367000000000189e+03,2.385171059886941336e-01,2.488897575141657548e-01
3.525295000000000073e+03,2.374176513611416794e-01,2.769964775614117691e-01
3.527224000000000160e+03,2.363116869051644642e-01,2.692432674927331959e-01
3.529152000000000044e+03,2.352003592920492991e-01,2.588760049064351421e-01
3.531080999999999676e+03,2.340825156923216355e-01,2.599150109733141534e-01
3.533009000000000015e+03,2.329593150936428714e-01,2.711850657998486902e-01
3.534938000000000102e+03,2.318295923501665357e-01,2.523487968908288970e-01
3.536865999999999985e+03,2.306945187659250607e-01,2.498666189678822036e-01
3.538795000000000073e+03,2.295529168786982765e-01,2.852121163567318263e-01
3.540722999999999956e+03,2.284059703088949789e-01,2.731244053287613660e-01
3.542652000000000044e+03,2.272524892779168582e-01,2.705284660474807090e-01
3.544579999999999927e+03,2.260936697225517378e-01,2.474053254853627593e-01
3.546509000000000015e+03,2.249283095478249450e-01,2.516422577732448929e-01
3.548436999999999898e+03,2.237576170068962256e-01,2.663560017904442745e-01
3.550365999999999985e+03,2.225803776884180962e-01,2.219589637863070841e-01
3.552294000000000324e+03,2.213978121619275541e-01,2.158869304567145875e-01
3.554222999999999956e+03,2.202086936996998645e-01,2.562513464919828898e-01
3.556150999999999840e+03,2.190142551876466115e-01,2.907445947118736385e-01
3.558079999999999927e+03,2.178132575816693617e-01,3.627069155517359533e-01
3.560007999999999811e+03,2.166069460840542860e-01,3.977700828230408270e-01
3.561936999999999898e+03,2.153940693343256996e-01,3.598262120074577908e-01
3.563864999999999782e+03,2.141758848511479130e-01,3.357823776314612374e-01
3.565794000000000324e+03,2.129511289576706545e-01,3.412025269396856686e-01
3.567722000000000207e+03,2.117210714889301570e-01,3.456471461644934351e-01
3.569650999999999840e+03,2.104844364517015620e-01,3.743292905540180904e-01
3.571579000000000178e+03,2.092425059973983537e-01,4.669222799045957828e-01
3.573507999999999811e+03,2.079939918164201984e-01,4.777943835120690430e-01
3.575435999999999694e+03,2.067401883765551673e-01,3.985612492490435699e-01
3.577364999999999782e+03,2.054797950518265637e-01,3.381444127082597895e-01
3.579292999999999665e+03,2.042141186263988217e-01,3.094603287379542600e-01
3.581222000000000207e+03,2.029418461579206578e-01,2.568432829192164313e-01
3.583150000000000091e+03,2.016642967469302050e-01,1.662310502927972777e-01
3.585079000000000178e+03,2.003801451347015927e-01,1.340672192183665068e-01
3.587007000000000062e+03,1.990907227381484290e-01,9.561247713818499250e-02
3.588935999999999694e+03,1.977946919821720329e-01,9.239080809511968084e-02
3.590864000000000033e+03,1.964933966000561583e-01,1.410981940631064191e-01
3.592792999999999665e+03,1.951854867003284255e-01,1.437656649459846392e-01
3.594720999999999549e+03,1.938723183326498400e-01,1.299350707537620941e-01
3.596650000000000091e+03,1.925525292891707707e-01,1.308382575403230774e-01
3.598577999999999975e+03,1.912274879359303625e-01,1.249566208907815223e-01
3.600507000000000062e+03,1.898958197487026212e-01,9.419213820461314057e-02
3.602434999999999945e+03,1.885589054099003903e-01,1.224072408259933020e-01
3.604364000000000033e+03,1.872153580789213123e-01,1.009211390612851922e-01
3.606291999999999916e+03,1.858665707545554824e-01,2.136984663592134126e-03
3.608220999999999549e+03,1.845111442798277324e-01,-4.161502432311126043e-02
3.610149000000000342e+03,1.831504839699000797e-01,2.708680154563536391e-02
3.612077999999999975e+03,1.817831783514218813e-01,1.029223402758772110e-01
3.614005999999999858e+03,1.804106450559315178e-01,7.227137689491103245e-02
3.615934999999999945e+03,1.790314602937019828e-01,-3.308782909253515925e-03
3.617862999999999829e+03,1.776470540126489084e-01,1.325107552823778789e-02
