wavenumber (/cm),baseline value (/cm),baseline-subtracted absorbance (/cm),
3.290019000000000233e+03,4.711556383970005868e-02,1.776356839400250465e-15
3.291947000000000116e+03,4.621475408189112954e-02,9.925040885490510334e-03
3.293875000000000000e+03,4.532447499629199683e-02,1.398214196549751875e-02
3.295804000000000087e+03,4.444427301426046029e-02,1.593130946477128163e-02
3.297731999999999971e+03,4.357506073505135191e-02,7.339198351621334382e-03
3.299660999999999603e+03,4.271593648617866279e-02,6.431314212796301888e-03
3.301589000000000397e+03,4.186779101336313147e-02,-5.156700612617193258e-03
3.303518000000000029e+03,4.102974449764573706e-02,-1.525528037835321982e-02
3.305447000000000116e+03,4.020223958091051486e-02,9.599251565408195574e-03
3.307375000000000000e+03,3.938569704866168308e-02,1.178298887864581701e-02
3.309302999999999884e+03,3.857968518862975316e-02,1.452935488592821400e-02
3.311231999999999971e+03,3.778379413923005359e-02,2.822552552526325087e-02
3.313159999999999854e+03,3.699884908558814800e-02,2.887067561152267814e-02
3.315089000000000397e+03,3.622403576934729585e-02,1.096981325208812308e-02
3.317017000000000280e+03,3.546015752209186189e-02,-1.398019480075074483e-02
3.318945999999999913e+03,3.470642193901340988e-02,5.146327362012037554e-03
3.320875000000000000e+03,3.396322795490647195e-02,2.062670680744282947e-02
3.322802999999999884e+03,3.323095264822839567e-02,1.670101380097932520e-02
3.324730999999999767e+03,3.250920801375656310e-02,6.169263561266902229e-03
3.326659999999999854e+03,3.179762789699225323e-02,3.746640509346477188e-03
3.328587999999999738e+03,3.109695006891399771e-02,9.658874721393928553e-03
3.330517000000000280e+03,3.040644768530498254e-02,1.119181392048140822e-03
3.332445000000000164e+03,2.972683666362030408e-02,2.976798005533076719e-03
3.334374000000000251e+03,2.905741201317013633e-02,5.255728713764007409e-03
3.336302000000000135e+03,2.839886779787192950e-02,5.785661559071897386e-03
3.338230999999999767e+03,2.775052088058060917e-02,9.605695201653219328e-04
3.340159000000000106e+03,2.711304347167597939e-02,-6.854888765245092941e-03
3.342087999999999738e+03,2.648577428754350649e-02,1.116753419335125841e-02
3.344015999999999622e+03,2.586936368503245376e-02,1.960127937181788127e-02
3.345945000000000164e+03,2.526317223405527557e-02,1.129134780322349485e-02
3.347873000000000047e+03,2.466782843793424718e-02,-6.537353135044554620e-03
3.349802000000000135e+03,2.408271472011591641e-02,-1.863257492514858171e-02
3.351730000000000018e+03,2.350843773038846507e-02,1.896035708568888367e-03
3.353659000000000106e+03,2.294440174572898172e-02,3.048803068670302707e-02
3.355586999999999989e+03,2.239119156238800201e-02,3.846808150378233648e-02
3.357515999999999622e+03,2.184823331088736609e-02,4.893927833869415878e-02
3.359444000000000415e+03,2.131608993393996343e-02,4.152640773614368896e-02
3.361373000000000047e+03,2.079420941559462221e-02,2.941082320323218369e-02
3.363302000000000135e+03,2.028287049623145322e-02,9.136514405913231940e-03
3.365230000000000018e+03,1.978233005985430282e-02,-4.130885511857584902e-03
3.367157999999999902e+03,1.929232029568694884e-02,-4.389244806403347354e-03
3.369086999999999989e+03,1.881259524366285518e-02,-6.109892540957950757e-03
3.371014999999999873e+03,1.834365228588907826e-02,-1.436974734646589980e-02
3.372944000000000415e+03,1.788500496702027931e-02,-7.466552031324624750e-03
3.374872000000000298e+03,1.743712881563652672e-02,1.508011256367414177e-02
3.376800999999999931e+03,1.699955922992657520e-02,2.862485829104333135e-02
3.378729000000000269e+03,1.657274988493639967e-02,2.530889037601546931e-02
3.380657999999999902e+03,1.615625803238529556e-02,2.025194327236778946e-02
3.382585999999999785e+03,1.575051549378514437e-02,7.091982176299360674e-03
3.384514999999999873e+03,1.535510137438933498e-02,1.897761064797887087e-02
3.386442999999999756e+03,1.497042564217920813e-02,2.571177379864053592e-02
3.388372000000000298e+03,1.459608925594579887e-02,2.721938138711177402e-02
3.390300000000000182e+03,1.423248033012569636e-02,1.735279459997762785e-02
3.392229000000000269e+03,1.387922167704758181e-02,2.276663107225296301e-02
3.394157000000000153e+03,1.353667955762105635e-02,3.818745837341452898e-02
3.396085999999999785e+03,1.320449863770178922e-02,3.463240723368699037e-02
3.398014000000000124e+03,1.288302332466884081e-02,2.133598879089593225e-02
3.399942999999999756e+03,1.257192013790486840e-02,1.790524668408988163e-02
3.401870999999999640e+03,1.227151163126549704e-02,8.070520055594165854e-03
3.403800000000000182e+03,1.198148617765681934e-02,8.517115872670011356e-03
3.405728000000000065e+03,1.170214447740747232e-02,7.381732503021432024e-03
3.407657000000000153e+03,1.143319675696119475e-02,3.136922635580763341e-02
3.409585000000000036e+03,1.117492186310187208e-02,6.533206788526779718e-02
3.411514000000000124e+03,1.092705187581444193e-02,5.839074868336524560e-02
3.413442000000000007e+03,1.068984378834514359e-02,2.806504903551410024e-02
3.415370999999999640e+03,1.046305153421300815e-02,2.805325787864809683e-02
3.417299000000000433e+03,1.024691025313728687e-02,3.674097418302224582e-02
3.419228000000000065e+03,1.004119573216399885e-02,4.747697761359592761e-02
3.421155999999999949e+03,9.846121257478301914e-03,5.067671192052802809e-02
3.423085000000000036e+03,9.661484469663861319e-03,2.438790975214555345e-02
3.425012999999999920e+03,9.487476801368188717e-03,-2.455789942094277478e-03
3.426942000000000007e+03,9.323917746712595545e-03,1.164066752821835138e-02
3.428869999999999891e+03,9.170976884806947282e-03,3.585884604156763800e-02
3.430799000000000433e+03,9.028495563310201533e-03,4.689228728850647343e-02
3.432727000000000317e+03,8.896621507798130324e-03,3.117327597589358845e-02
3.434655999999999949e+03,8.775217919460231997e-03,3.511481003953420554e-02
3.436584000000000287e+03,8.664410670338185128e-03,3.863568252630678046e-02
3.438512999999999920e+03,8.564084815159134223e-03,2.016378098167237454e-02
3.440440999999999804e+03,8.474344372427111693e-03,1.959784565475075624e-05
3.442369999999999891e+03,8.395096250406908212e-03,2.109097598615328195e-03
3.444297999999999774e+03,8.326422614064910022e-03,1.061299956673700251e-02
3.446227000000000317e+03,8.268252225203553962e-03,2.226856044953962055e-02
3.448155000000000200e+03,8.220645395255132826e-03,3.152306383121317168e-02
3.450084000000000287e+03,8.183552739549071475e-03,4.584813411972543662e-02
3.452012000000000171e+03,8.157012715990674678e-03,3.724559679006755886e-02
3.453940999999999804e+03,8.140997793443460750e-03,3.737437965296752651e-02
3.455869000000000142e+03,8.135524576278641007e-03,6.035934960825173334e-02
3.457797999999999774e+03,8.140587386886721788e-03,5.204301000360711527e-02
3.459725999999999658e+03,8.156180976115479098e-03,5.206003524010061057e-02
3.461655000000000200e+03,8.182321519882407301e-03,6.030602889950387180e-02
3.463583000000000084e+03,8.218981915497636237e-03,3.078381398385054979e-02
3.465512000000000171e+03,8.266200192423411863e-03,2.396026765473457942e-02
3.467440000000000055e+03,8.323927394435770566e-03,3.108893374256371800e-02
3.469369000000000142e+03,8.392223404516840901e-03,6.510171881356452417e-02
3.471297000000000025e+03,8.471017412919223943e-03,7.962031529910262861e-02
3.473225999999999658e+03,8.560391156159141701e-03,6.030726960805399273e-02
3.475154000000000451e+03,8.660251970955101797e-03,2.863424942699488440e-02
3.477083000000000084e+03,8.770703447353866977e-03,2.083321081173306055e-02
3.479010999999999967e+03,8.891631068536298699e-03,3.474303808337531052e-02
3.480940000000000055e+03,9.023160278093911302e-03,5.827972881790000059e-02
3.482867999999999938e+03,9.165154705666367363e-03,5.374444454876048383e-02
3.484797000000000025e+03,9.317761648382827389e-03,4.694318895739524322e-02
3.486724999999999909e+03,9.480822882348860503e-03,3.611377171224550153e-02
3.488654000000000451e+03,9.654507558224167951e-03,5.114884752099335685e-02
3.490582000000000335e+03,9.838635598580225405e-03,8.315111277047915195e-02
3.492510999999999967e+03,1.003339800761438028e-02,7.545868027756785779e-02
3.494439000000000306e+03,1.023859285436046207e-02,6.493754880454005729e-02
3.496367999999999938e+03,1.045443299654991165e-02,6.501248219450328492e-02
3.498295999999999822e+03,1.068069464969312321e-02,6.010681699988840165e-02
3.500224999999999909e+03,1.091761252504142021e-02,6.075340331838940955e-02
3.502152999999999793e+03,1.116494098457110340e-02,4.888072537144072527e-02
3.504082000000000335e+03,1.142293659308180054e-02,4.539253404997456443e-02
3.506010000000000218e+03,1.169133185900150806e-02,5.954725155199636077e-02
3.507939000000000306e+03,1.197040520066749991e-02,7.458225090371239929e-02
3.509867000000000189e+03,1.225986727298078449e-02,5.525085034118593086e-02
3.511795999999999822e+03,1.256001834780207105e-02,3.391342060839619421e-02
3.513724000000000160e+03,1.287054722650893268e-02,4.286663823481529079e-02
3.515652999999999793e+03,1.319177603448906666e-02,6.404121557781294882e-02
3.517580999999999676e+03,1.352337171958595263e-02,8.364717814061961576e-02
3.519510000000000218e+03,1.386567826072493403e-02,8.443907476816647772e-02
3.521438000000000102e+03,1.421834075221184435e-02,6.195780090668812079e-02
3.523367000000000189e+03,1.458172502650967317e-02,6.255806994087187434e-02
3.525295000000000073e+03,1.495545432439016054e-02,7.137912163087634099e-02
3.527224000000000160e+03,1.533991633184328407e-02,8.375234834663025651e-02
3.529152000000000044e+03,1.573471243611379577e-02,8.051132670647742628e-02
3.531080999999999676e+03,1.614025217672931944e-02,6.635182610845369311e-02
3.533009000000000015e+03,1.655611508738985549e-02,4.678032480077476407e-02
3.534938000000000102e+03,1.698273256116067387e-02,4.758949483865304586e-02
3.536865999999999985e+03,1.741966227821478697e-02,3.920848310855085117e-02
3.538795000000000073e+03,1.786735748514445277e-02,3.257625854467871562e-02
3.540722999999999956e+03,1.832535400858859020e-02,2.936523313027450399e-02
3.542652000000000044e+03,1.879412694867355071e-02,4.682469877360073696e-02
3.544579999999999927e+03,1.927319027851126521e-02,6.898216852857164127e-02
3.546509000000000015e+03,1.976304095175507314e-02,6.019968039027734363e-02
3.548436999999999898e+03,2.026317108798281197e-02,5.620747196886721753e-02
3.550365999999999985e+03,2.077409949438546732e-02,5.655395269573570971e-02
3.552294000000000324e+03,2.129529643700323049e-02,3.724804000288450823e-02
3.554222999999999956e+03,2.182730257656473327e-02,2.573746909165475216e-02
3.556150999999999840e+03,2.236956632557607350e-02,3.641887729045567568e-02
3.558079999999999927e+03,2.292265019829997641e-02,4.912953992285551408e-02
3.560007999999999811e+03,2.348598075369778826e-02,5.596415904126939012e-02
3.561936999999999898e+03,2.406014235957698588e-02,5.526138606539987563e-02
3.563864999999999782e+03,2.464453972136837479e-02,7.917652272038377959e-02
3.565794000000000324e+03,2.523977906040641983e-02,1.088729888799475631e-01
3.567722000000000207e+03,2.584524322858783307e-02,1.147307120370220090e-01
3.569650999999999840e+03,2.646156030078117283e-02,1.028879271176723620e-01
3.571579000000000178e+03,2.708809127535616312e-02,1.023266337945409887e-01
3.573507999999999811e+03,2.772548608070835030e-02,1.099501895949677177e-01
3.575435999999999694e+03,2.837308386167336494e-02,8.191023393888663406e-02
3.577364999999999782e+03,2.903155640018439954e-02,4.969537743019891707e-02
3.579292999999999665e+03,2.970022098754654394e-02,4.117023567601396650e-02
3.581222000000000207e+03,3.037977125921287325e-02,5.863141233817881215e-02
3.583150000000000091e+03,3.106950265296148928e-02,7.216535289223902083e-02
3.585079000000000178e+03,3.177013065778666601e-02,6.007982274389078725e-02
3.587007000000000062e+03,3.248092885792885909e-02,6.688812985595671279e-02
3.588935999999999694e+03,3.320263459591288324e-02,5.217760771536461561e-02
3.590864000000000033e+03,3.393449960244510066e-02,2.289961036959642371e-02
3.592792999999999665e+03,3.467728307358797224e-02,2.425095550982359072e-02
3.594720999999999549e+03,3.543021488651021400e-02,2.554648595225916807e-02
3.596650000000000091e+03,3.619407609081193300e-02,2.559623145811684708e-02
3.598577999999999975e+03,3.696807471012419910e-02,3.374115175772285369e-02
3.600507000000000062e+03,3.775301364758476552e-02,3.972322120796079048e-02
3.602434999999999945e+03,3.854807907329060868e-02,1.160476342438077069e-02
3.604364000000000033e+03,3.935409574390646981e-02,2.428263447207257286e-05
3.606291999999999916e+03,4.017022797600233730e-02,3.194813176304656110e-02
3.608220999999999549e+03,4.099732237977704585e-02,4.199149402283275379e-02
3.610149000000000342e+03,4.183452141826649040e-02,-1.357729867828449954e-02
3.612077999999999975e+03,4.268269355520004638e-02,-4.268269355520004638e-02
3.614005999999999858e+03,4.354095940008306798e-02,-2.885503209346662601e-02
3.615934999999999945e+03,4.441020927017191866e-02,1.510144031044369228e-02
3.617862999999999829e+03,4.528954192144496460e-02,3.342061651285188617e-02
