baseline wavenumber (cm-1),baseline absorbance (cm-1),baseline-subtracted absorbance (cm-1)
3149.238,0.169090400746,-6.2172489379e-15
3151.167,0.167395311162,0.00138101689024
3153.095,0.165710329469,-0.00947920178963
3155.023,0.164034574534,-0.0150177991379
3156.952,0.162367184369,-0.0254370818526
3158.881,0.160709030536,-0.0320892728468
3160.809,0.159060965445,-0.0197655320809
3162.738,0.157421279487,-0.000875147147758
3164.666,0.155791672698,0.00739472059182
3166.594,0.154171292667,-0.00704361326334
3168.523,0.152559306127,-0.0148715148877
3170.452,0.150956555919,-0.0237934617906
3172.38,0.149363865733,-0.0322958321821
3174.309,0.1477795834,-0.0316015778082
3176.237,0.146205351515,-0.0294840094832
3178.166,0.144639537057,-0.0158026311857
3180.094,0.143083763473,0.00228249934112
3182.022,0.141537216648,0.00462960534688
3183.951,0.139999101608,0.0014603578511
3185.88,0.138470222901,-0.00810302811983
3187.808,0.13695136592,-0.0152738263112
3189.737,0.135440955087,-0.0103887649662
3191.665,0.133940556408,-0.016895822018
3193.594,0.13244861345,-0.0211643636832
3195.522,0.130966673072,-0.00926303840262
3197.45,0.129493959451,-0.00714913186492
3199.379,0.128029715912,-0.0241154568258
3201.308,0.126574708705,-0.0320630591248
3203.236,0.12512968493,-0.00697591046543
3205.165,0.123693145598,-0.020557078496
3207.093,0.122266580123,-0.0460447721082
3209.021,0.120849241406,-0.0314662031958
3210.95,0.119440401493,-0.0190396559199
3212.878,0.118041521078,-0.030255873361
3214.807,0.116651149039,-0.0342960698223
3216.736,0.115270013333,-0.0414517467905
3218.664,0.113898822762,-0.048344302725
3220.593,0.112536154931,-0.0391820076802
3222.521,0.111183422662,-0.0225329100801
3224.449,0.10983991715,-0.0131269628165
3226.378,0.108504948737,-0.0208609599209
3228.306,0.107179901527,-0.0125144774825
3230.235,0.105863400989,-0.00292118290932
3232.164,0.104556136783,-0.0071870780695
3234.092,0.103258779418,-0.00125039172001
3236.021,0.101969983087,-0.00058321701067
3237.949,0.100691084023,-0.00489145680965
3239.877,0.0994214117169,-0.00632355523972
3241.806,0.0981603148045,0.00247062648159
3243.734,0.0969091007996,-0.0073760159907
3245.663,0.0956664717624,-0.0274064531231
3247.592,0.0944330790568,-0.0369298171742
3249.52,0.0932095548967,-0.0274583899387
3251.448,0.0919952574945,-0.00808006644136
3253.377,0.0907895642075,0.011871200005
3255.305,0.0895937251066,0.0166150353781
3257.234,0.0884064996947,0.0174322701096
3259.162,0.0872291188951,-0.00331485980839
3261.091,0.0860603613583,-0.0161712653658
3263.02,0.0849008401532,0.00119235649173
3264.948,0.0837511491984,0.0106253652471
3266.876,0.0826106850014,-0.00884647251302
3268.805,0.0814788632149,-0.0108917243519
3270.733,0.0803568573192,0.00746886495482
3272.662,0.0792435034078,0.00972387776649
3274.591,0.078139385828,-0.00356156662953
3276.519,0.0770450697772,-0.00583724125898
3278.448,0.0759594200725,0.00454570574295
3280.376,0.074883562323,0.0223475653565
3282.304,0.0738169313312,0.0193983529186
3284.233,0.0727589810452,-0.0040944889669
3286.161,0.0717108083548,-0.029393939762
3288.09,0.0706713259438,-0.0271913632225
3290.019,0.0696410798646,-0.0103167555403
3291.947,0.068620597019,-2.50704579061e-05
3293.875,0.0676093409311,0.00707938227482
3295.804,0.0666067942705,0.0136103539122
3297.732,0.065613996484,0.00759010416838
3299.661,0.0646299176985,0.00184258929129
3301.589,0.0636555782133,-0.0104552054267
3303.518,0.0626899673029,-0.0137645246188
3305.447,0.0617335927241,0.0112151491212
3307.375,0.0607869430837,0.00992880714929
3309.303,0.0598495202012,0.0161430240673
3311.232,0.058920845041,0.0296243553318
3313.16,0.0580018804597,0.0248946712644
3315.089,0.0570916731747,0.00655697547397
3317.017,0.0561911668948,-0.0160867866524
3318.946,0.0552994274848,0.00806403943037
3320.875,0.0544169244065,0.0281720783894
3322.803,0.0535441079714,0.0242452676111
3324.731,0.0526805182941,0.00920950966489
3326.66,0.0518257146344,0.00391519869271
3328.588,0.0509805832584,0.0105869843091
3330.517,0.0501442474739,0.00448017004711
3332.445,0.0493175743992,0.00532734638366
3334.374,0.0484997064897,0.0115655311617
3336.302,0.0476914917164,0.00833460334419
3338.231,0.0468920916821,-0.000322660181588
3340.159,0.04610233521,-0.00537167351383
3342.088,0.0453214030508,0.0192116817581
3344.016,0.0445501048801,0.0276651793697
3345.945,0.043787640596,0.0161061152288
3347.873,0.0430348007266,-0.000470961024799
3349.802,0.0422908043176,-0.0109142898721
3351.73,0.0415564227495,0.0123839313977
3353.659,0.0408308942157,0.0396173816464
3355.587,0.0401149709489,0.0495933235525
3357.516,0.0394079102901,0.0634839816017
3359.444,0.0387104453247,0.05524109242
3361.373,0.0380218525411,0.0426668706649
3363.302,0.0373424960891,0.0217767956164
3365.23,0.0366727209684,0.00196101621704
3367.158,0.0360121726056,-0.00306343076028
3369.087,0.0353605155722,-0.000380086867649
3371.015,0.0347184255107,-0.00935029876324
3372.944,0.0340852363524,-0.00470778994051
3374.872,0.0334616045922,0.0226418436836
3376.801,0.0328468833091,0.0379555398037
3378.729,0.0322417098502,0.0298412351638
3380.658,0.0316454564422,0.0267310580033
3382.586,0.0310587412846,0.0113820788459
3384.515,0.0304809557517,0.020495745087
3386.443,0.0299126988954,0.0311311035277
3388.372,0.0293533812377,0.036212322397
3390.3,0.0288035826827,0.0287006111663
3392.229,0.0282627329001,0.0306589819182
3394.157,0.0277313926464,0.0431903221718
3396.086,0.0272090107389,0.0455412222527
3398.014,0.0266961287866,0.0356906372899
3399.943,0.0261922147542,0.0277136566344
3401.871,0.0256977911032,0.0160897205464
3403.8,0.0252123449459,0.0185677109721
3405.728,0.0247363795962,0.0180017378316
3407.657,0.024269401314,0.0403037580522
3409.585,0.0238118942656,0.0739784132833
3411.514,0.0233633838586,0.0705639227584
3413.442,0.0229243351115,0.0421287869761
3415.371,0.0224942925796,0.0383612526208
3417.299,0.0220737021338,0.0461462419482
3419.228,0.021662127477,0.0541244522061
3421.156,0.0212599953326,0.0507418686003
3423.085,0.0208668885509,0.0311573425768
3425.013,0.0204832147078,0.00879078342831
3426.942,0.0201085758012,0.0197208743386
3428.87,0.0197433602594,0.0455325018096
3430.799,0.019387189228,0.0619101080693
3432.727,0.0190404319874,0.0485988969967
3434.656,0.0187027288311,0.0534818005258
3436.584,0.0183744298919,0.0571735663802
3438.513,0.0180551946107,0.0379420094899
3440.441,0.0177453539729,0.0168939750113
3442.37,0.0174445865668,0.016696140367
3444.298,0.0171532042302,0.0211692561612
3446.227,0.0168709046993,0.0289743888702
3448.155,0.016597980664,0.0439267164469
3450.084,0.0163341490082,0.0626639870589
3452.012,0.0160796832742,0.0516575021871
3453.941,0.0158343194935,0.0511386534794
3455.869,0.0155983120609,0.0784659936241
3457.798,0.0153714161553,0.0683173070506
3459.726,0.015153867024,0.0668927312985
3461.655,0.0149454389935,0.0808560521528
3463.583,0.0147463481635,0.0511371560303
3465.512,0.0145563880082,0.0480801450766
3467.44,0.0143757554795,0.0580510851542
3469.369,0.0142042631993,0.0900399120104
3471.297,0.0140420889719,0.103168535446
3473.226,0.0138890645668,0.0896402923763
3475.154,0.0137453486407,0.0683683512661
3477.083,0.0136107921108,0.0695653495481
3479.011,0.013485534486,0.0803383238551
3480.94,0.0133694458311,0.0918821851101
3482.868,0.0132626465077,0.0845192733432
3484.797,0.013165025728,0.083496670451
3486.725,0.0130766847058,0.0760873413892
3488.654,0.0129975318012,0.0903603433153
3490.582,0.0129276490804,0.123186982793
3492.511,0.0128669640509,0.117323157105
3494.439,0.0128155396314,0.108569362512
3496.368,0.0127733224771,0.110000209676
3498.296,0.0127403563589,0.103917611954
3500.225,0.0127166070796,0.108073700469
3502.153,0.0127020992627,0.097596130001
3504.082,0.0126968178586,0.0914383172765
3506.01,0.012700768343,0.107479101182
3507.939,0.012713954814,0.121487349939
3509.867,0.0127363635998,0.105728687658
3511.796,0.0127680179459,0.0951872476645
3513.724,0.012808885033,0.104644050661
3515.653,0.0128590072542,0.126199706632
3517.581,0.0129183326426,0.149048116565
3519.51,0.012986922739,0.152502359647
3521.438,0.0130647064286,0.129505657038
3523.367,0.0131517644001,0.124712168498
3525.295,0.0132480063911,0.136513410198
3527.224,0.0133535322377,0.149291388545
3529.152,0.01346823253,0.145057396547
3531.081,0.0135922262518,0.133213924727
3533.009,0.0137253848454,0.115993161287
3534.938,0.0138678464422,0.110019385617
3536.866,0.0140194633372,0.0982163241745
3538.795,0.0141803928091,0.0995512008535
3540.723,0.0143504680054,0.0961816848371
3542.652,0.0145298653525,0.107765568012
3544.58,0.0147183988501,0.119690734421
3546.509,0.0149162640723,0.104469570038
3548.437,0.0151232558711,0.107673575443
3550.366,0.0153395889685,0.111501976735
3552.294,0.0155650390687,0.0915728919658
3554.223,0.0157998400411,0.0880855280856
3556.151,0.0160437484426,0.101469765071
3558.08,0.0162970172902,0.113613513931
3560.008,0.016559383993,0.127224399791
3561.937,0.0168311207157,0.13505704331
3563.865,0.0171119457199,0.156786469937
3565.794,0.0174021503177,0.175796358536
3567.722,0.0177014336231,0.182162499275
3569.651,0.0180101060961,0.194027172562
3571.579,0.0183278477028,0.204852021822
3573.508,0.0186549880509,0.213825906637
3575.436,0.0189911879589,0.179745065536
3577.365,0.0193367961821,0.131935338021
3579.293,0.0196914543915,0.114292702179
3581.222,0.0200555304898,0.11672918526
3583.15,0.0204286470005,0.116421306401
3585.079,0.0208111909739,0.0979530215144
3587.007,0.0212027657859,0.0839193218189
3588.936,0.0216037776345,0.0716217582462
3590.864,0.0220138107478,0.0567429460089
3592.793,0.0224332904715,0.0557381913552
3594.721,0.0228617818861,0.0502323467252
3596.65,0.0232997294849,0.0503936535533
3598.578,0.0237466792009,0.0563316059809
3600.507,0.0242030946748,0.0613756564902
3602.435,0.024668502692,0.0422308449315
3604.364,0.0251433860411,0.0351511153569
3606.292,0.0256272523596,0.0616094671185
3608.221,0.0261206035838,0.0615550720919
3610.149,0.0266229282037,0.0068085722623
3612.078,0.027134747303,-0.027134747303
3614.006,0.0276555302242,-0.0130562757973
3615.935,0.0281858171985,0.0333407438453
3617.863,0.0287250584211,0.0379468893888
3619.792,0.0292738132706,0.00212413640323
3621.72,0.0298315127944,-0.00483990049246
3623.649,0.030398735519,0.015700984891
3625.577,0.0309748933442,0.000560055397652
3627.506,0.0315605839439,0.00246551111663
3629.434,0.0321552000704,0.0177767663788
3631.363,0.0327593585453,-0.00849747597306
3633.291,0.0333724329731,-0.00936124937567
3635.22,0.0339950593231,0.000950886622892
3637.148,0.0346265920521,0.00434731288728
3639.077,0.0352676862773,0.0190473183826
3641.005,0.0359176773077,0.0364178306141
3642.934,0.0365772394079,0.0403565909742
3644.862,0.0372456887396,0.0142650288746
3646.791,0.037923718715,0.0142934294677
3648.719,0.038610626348,0.037636344761
3650.648,0.0393071241985,0.0183517760811
3652.576,0.0400124901328,0.00438173167519
3654.505,0.0407274558584,0.00295008375015
3656.433,0.0414512800941,0.00582924180713
3658.362,0.0421847136948,0.000260766267921
3660.29,0.0429269962318,-0.00475365047222
3662.219,0.0436788977076,0.00271346016751
3664.147,0.0444396385459,0.001929420168
3666.076,0.0452100078969,0.00397172556074
3668.004,0.0459892070365,0.00674425055907
3669.933,0.0467780442625,0.0250877525688
3671.861,0.0475757017034,0.0252220615771
3673.79,0.0483830068047,0.0222945328039
3675.718,0.0491991225469,-0.009462869052
3677.647,0.0500248955232,-0.024578483594
3679.575,0.0508594695667,-0.0221250800048
3681.504,0.0517037104182,-0.00672794154587
3683.432,0.052556742763,0.00610122555011
3685.361,0.0534194514896,0.00293562772754
3687.289,0.0542909421358,0.0105422358698
3689.218,0.0551721187375,0.0211065392309
3691.146,0.0560620676849,0.00346169745952
3693.075,0.0569617121617,-0.00260197311235
3695.003,0.0578701194105,-0.00757841391193
3696.932,0.0587882317625,-0.00458226717719
3698.86,0.0597150973126,-0.00550913272729
