wavenumber (/cm),baseline value (/cm),baseline-subtracted absorbance (/cm),
3.290019000000000233e+03,3.953532230638385769e-01,3.552713678800500929e-15
3.291947000000000116e+03,3.946487736770381005e-01,-3.415024221931783899e-02
3.293875000000000000e+03,3.939378473905756906e-01,-5.032600630230898986e-02
3.295804000000000087e+03,3.932200704267971858e-01,-1.500164408578630315e-02
3.297731999999999971e+03,3.924961869816216975e-01,2.559857264119447251e-02
3.299660999999999603e+03,3.917654461386108622e-01,-3.170609224095954914e-03
3.301589000000000397e+03,3.910286055347222955e-01,-3.618012121187064167e-05
3.303518000000000029e+03,3.902849008124809060e-01,1.457442829557198394e-02
3.305447000000000116e+03,3.895347124700601071e-01,3.288142603666344144e-02
3.307375000000000000e+03,3.887784344484073173e-01,3.657169694747963717e-02
3.309302999999999884e+03,3.880156795270943704e-01,2.832765019929261996e-02
3.311231999999999971e+03,3.872460470463900961e-01,2.620685819900714364e-04
3.313159999999999854e+03,3.864703349663622944e-01,-1.327277738404752938e-02
3.315089000000000397e+03,3.856877386064274660e-01,-7.331733041425536612e-03
3.317017000000000280e+03,3.848990693676865860e-01,1.599906017320051888e-02
3.318945999999999913e+03,3.841035091285229797e-01,4.300268966572584617e-02
3.320875000000000000e+03,3.833014652691781876e-01,3.182297436600478591e-02
3.322802999999999884e+03,3.824933586126730845e-01,4.470404438624431265e-02
3.324730999999999767e+03,3.816787750565060477e-01,6.004328399435188146e-02
3.326659999999999854e+03,3.808572870588795567e-01,3.484960583723051286e-03
3.328587999999999738e+03,3.800297463439994416e-01,-1.933025646921304741e-02
3.330517000000000280e+03,3.791952944671406200e-01,1.171365591158757269e-02
3.332445000000000164e+03,3.783547965935474267e-01,1.187089516715733595e-02
3.334374000000000251e+03,3.775073808374580508e-01,3.553791209808032647e-02
3.336302000000000135e+03,3.766539258051517791e-01,6.533401668982374844e-02
3.338230999999999767e+03,3.757935461698336255e-01,6.216518006296833931e-02
3.340159000000000106e+03,3.749271339788124990e-01,4.411135728722470617e-02
3.342087999999999738e+03,3.740537904642637912e-01,2.647399827898411218e-03
3.344015999999999622e+03,3.731744211145313628e-01,-3.437321536403015187e-02
3.345945000000000164e+03,3.722881137207485480e-01,-5.863530803207961384e-02
3.347873000000000047e+03,3.713957872123030413e-01,-2.658824354249400557e-02
3.349802000000000135e+03,3.704965159392896723e-01,-4.231250828762966876e-03
3.351730000000000018e+03,3.695912322721310872e-01,-9.004588277696790044e-03
3.353659000000000106e+03,3.686789971198871640e-01,2.516471906499351263e-02
3.355586999999999989e+03,3.677607562940172770e-01,2.978214059885520015e-02
3.357515999999999622e+03,3.668355572625410232e-01,4.338704283020877739e-02
3.359444000000000415e+03,3.659043592779562815e-01,4.142057502409901559e-02
3.361373000000000047e+03,3.649661963672494736e-01,3.445720755916870104e-02
3.363302000000000135e+03,3.640215498363632562e-01,2.947358078660844427e-02
3.365230000000000018e+03,3.630709144340142913e-01,-6.657249261654563099e-03
3.367157999999999902e+03,3.621138021320051692e-01,2.419706508085628371e-02
3.369086999999999989e+03,3.611497114628372529e-01,3.582354560935296917e-02
3.371014999999999873e+03,3.601796420021132761e-01,3.328457194130862717e-02
3.372944000000000415e+03,3.592025874537130292e-01,5.166926290955675682e-02
3.374872000000000298e+03,3.582195608342777504e-01,5.259045616989599381e-02
3.376800999999999931e+03,3.572295424066469494e-01,3.694034474747187602e-02
3.378729000000000269e+03,3.562335586284968159e-01,3.886846641401220381e-02
3.380657999999999902e+03,3.552305763216372370e-01,3.393931083248080682e-02
3.382585999999999785e+03,3.542216353847740251e-01,2.102647096860366105e-02
3.384514999999999873e+03,3.532056891986821157e-01,1.299387796780404614e-02
3.386442999999999756e+03,3.521837911031058255e-01,3.843763415582035492e-02
3.388372000000000298e+03,3.511548810377815855e-01,3.874154808572871644e-02
3.390300000000000182e+03,3.501200257834939933e-01,-3.056337423624100325e-03
3.392229000000000269e+03,3.490781518389391991e-01,-3.418636021735999009e-02
3.394157000000000153e+03,3.480303394259385286e-01,-1.536609456583715172e-02
3.396085999999999785e+03,3.469755016021531802e-01,2.115548019117063916e-03
3.398014000000000124e+03,3.459147320304376549e-01,1.376450741924450938e-02
3.399942999999999756e+03,3.448469303274217523e-01,5.656238632231413987e-03
3.401870999999999640e+03,3.437732035969931488e-01,-1.764392343321929957e-03
3.403800000000000182e+03,3.426924380147466920e-01,3.168149922439322808e-02
3.405728000000000065e+03,3.416057541256050101e-01,2.664745347989772029e-02
3.407657000000000153e+03,3.405120246641262227e-01,-9.329461671391925393e-03
3.409585000000000036e+03,3.394123836162732388e-01,-1.936137109501867570e-02
3.411514000000000124e+03,3.383056902755621209e-01,-1.515296187859238586e-02
3.413442000000000007e+03,3.371930920689960587e-01,-2.000882865888709006e-02
3.415370999999999640e+03,3.360734348490561629e-01,-8.729950539271946752e-03
3.417299000000000433e+03,3.349478794837752460e-01,1.385719085167025355e-02
3.419228000000000065e+03,3.338152583846030197e-01,-1.106184339156435215e-03
3.421155999999999949e+03,3.326767458606108008e-01,2.575225077709575316e-03
3.423085000000000036e+03,3.315311608822080203e-01,2.422784360070995291e-02
3.425012999999999920e+03,3.303796911995027230e-01,7.498512561916914620e-02
3.426942000000000007e+03,3.292211423418693883e-01,1.035760442402908765e-01
3.428869999999999891e+03,3.280567155004492363e-01,7.816681209268594444e-02
3.430799000000000433e+03,3.268852027635853474e-01,4.772447415711322805e-02
3.432727000000000317e+03,3.257078187634521171e-01,4.011224616157349487e-02
3.434655999999999949e+03,3.245233421473576740e-01,4.764469000598836601e-02
3.436584000000000287e+03,3.233330009885113654e-01,2.128826968701780231e-02
3.438512999999999920e+03,3.221355604931863681e-01,-4.923389751780860024e-04
3.440440999999999804e+03,3.209322621756269811e-01,2.758070777355570158e-04
3.442369999999999891e+03,3.197218578010696532e-01,-3.421714300743960990e-02
3.444297999999999774e+03,3.185056023247989643e-01,-4.555769692983879793e-02
3.446227000000000317e+03,3.172822340710093059e-01,8.902647672690555680e-03
3.448155000000000200e+03,3.160530214360255385e-01,7.268480512140218508e-02
3.450084000000000287e+03,3.148166893030053259e-01,6.780813679067243527e-02
3.452012000000000171e+03,3.135745195093084803e-01,4.813903745467396078e-02
3.453940999999999804e+03,3.123252234970577135e-01,2.826760383328696946e-02
3.455869000000000142e+03,3.110700965446477895e-01,3.757343414015590355e-02
3.457797999999999774e+03,3.098078366531646921e-01,7.376226691771137212e-02
3.459725999999999658e+03,3.085397525420434661e-01,8.415540899760731719e-02
3.461655000000000200e+03,3.072645287713280382e-01,6.850452363244308174e-02
3.463583000000000084e+03,3.059834875014937339e-01,6.483193992159996810e-02
3.465512000000000171e+03,3.046952998515477518e-01,6.767369071886530918e-02
3.467440000000000055e+03,3.034013014230003691e-01,1.012331088413365165e-01
3.469369000000000142e+03,3.021001498938238328e-01,1.054891220183717948e-01
3.471297000000000025e+03,3.007931943065633718e-01,4.953684124761714713e-02
3.473225999999999658e+03,2.994790788981562812e-01,6.010354592793643036e-02
3.475154000000000451e+03,2.981591661521809655e-01,9.864404918249203291e-02
3.477083000000000084e+03,2.968320868645433208e-01,1.273849482258873067e-01
3.479010999999999967e+03,2.954992169598549268e-01,1.421348841376861571e-01
3.480940000000000055e+03,2.941591737929867278e-01,1.093622360076000888e-01
3.482867999999999938e+03,2.928133467295852554e-01,1.037216664100029107e-01
3.484797000000000025e+03,2.914603396834865023e-01,1.258622758676031239e-01
3.486724999999999909e+03,2.901015554613719516e-01,1.395544964786497033e-01
3.488654000000000451e+03,2.887355845360408679e-01,1.278257077811630893e-01
3.490582000000000335e+03,2.873638431552132388e-01,1.107850206568130602e-01
3.492510999999999967e+03,2.859849083506533773e-01,1.404032505610794956e-01
3.494439000000000306e+03,2.846002098111126699e-01,1.648602941307633074e-01
3.496367999999999938e+03,2.832083111273204779e-01,1.528049830448852120e-01
3.498295999999999822e+03,2.818106554290666921e-01,1.470887107790019854e-01
3.500224999999999909e+03,2.804057928660439458e-01,1.325312916910732497e-01
3.502152999999999793e+03,2.789951800090770817e-01,9.150876186756473629e-02
3.504082000000000335e+03,2.775773535668220049e-01,1.122688359524222079e-01
3.506010000000000218e+03,2.761537835511420624e-01,1.446168146866062543e-01
3.507939000000000306e+03,2.747229932296564314e-01,1.410916612764490097e-01
3.509867000000000189e+03,2.732864660552651870e-01,1.448036560656191796e-01
3.511795999999999822e+03,2.718427118545472254e-01,1.782554486030187846e-01
3.513724000000000160e+03,2.703932275214429026e-01,1.915862128866567815e-01
3.515652999999999793e+03,2.689365094414943869e-01,2.150695193110170322e-01
3.517580999999999676e+03,2.674740679496769857e-01,2.404282353429492147e-01
3.519510000000000218e+03,2.660043859904961394e-01,2.400127727666543365e-01
3.521438000000000102e+03,2.645289873399674363e-01,2.361249004324843526e-01
3.523367000000000189e+03,2.630463415015560358e-01,2.464303936970830833e-01
3.525295000000000073e+03,2.615579856923107016e-01,2.619526032704335705e-01
3.527224000000000160e+03,2.600623759746705232e-01,2.526552001576529705e-01
3.529152000000000044e+03,2.585610630067121107e-01,2.511606868773492707e-01
3.531080999999999676e+03,2.570524894098413782e-01,2.499485926739417607e-01
3.533009000000000015e+03,2.555382192831698873e-01,2.700198267826818821e-01
3.534938000000000102e+03,2.540166818070686006e-01,2.556378242989749694e-01
3.536865999999999985e+03,2.524894545216840314e-01,2.457761197556385113e-01
3.538795000000000073e+03,2.509549531663504141e-01,2.751966931468352584e-01
3.540722999999999956e+03,2.494147687222527665e-01,2.748045851191438516e-01
3.542652000000000044e+03,2.478673034876885950e-01,2.739397764319280171e-01
3.544579999999999927e+03,2.463141618848796455e-01,2.389099840418467124e-01
3.546509000000000015e+03,2.447537327710831434e-01,2.343094918385935088e-01
3.548436999999999898e+03,2.431876340095611155e-01,2.622467453380963320e-01
3.550365999999999985e+03,2.416142410165340593e-01,2.282404505895865299e-01
3.552294000000000324e+03,2.400351850962971767e-01,2.248882961218185983e-01
3.554222999999999956e+03,2.384488282240395662e-01,2.622784866623408817e-01
3.556150999999999840e+03,2.368568151450913817e-01,2.951968252939254356e-01
3.558079999999999927e+03,2.352574943936032170e-01,3.701915703768401400e-01
3.560007999999999811e+03,2.336525241559401778e-01,3.914100821201458302e-01
3.561936999999999898e+03,2.320402395252214589e-01,3.499801654832799258e-01
3.563864999999999782e+03,2.304223121288453413e-01,3.435118353437154326e-01
3.565794000000000324e+03,2.287970636188942919e-01,3.519866742076622756e-01
3.567722000000000207e+03,2.271661790638068723e-01,3.492351194367335765e-01
3.569650999999999840e+03,2.255279666746234923e-01,3.759598985286531914e-01
3.571579000000000178e+03,2.238841249608229944e-01,4.642446430094961940e-01
3.573507999999999811e+03,2.222329486924090602e-01,4.778590284292478785e-01
3.575435999999999694e+03,2.205761498198954840e-01,4.179328933088717335e-01
3.577364999999999782e+03,2.189120096722509956e-01,3.559496381867681691e-01
3.579292999999999665e+03,2.172422536410243410e-01,2.961547165243789692e-01
3.581222000000000207e+03,2.155651496141492984e-01,2.383102561672698627e-01
3.583150000000000091e+03,2.138824364242095655e-01,1.563339803326302402e-01
3.585079000000000178e+03,2.121923685181021924e-01,1.389747361348581123e-01
3.587007000000000062e+03,2.104966981694493811e-01,1.073808717795383672e-01
3.588935999999999694e+03,2.087936663841132301e-01,9.717789027070189434e-02
3.590864000000000033e+03,2.070850388767455641e-01,1.437288427123704082e-01
3.592792999999999665e+03,2.053690432121788589e-01,1.453536341722694303e-01
3.594720999999999549e+03,2.036474585460998910e-01,1.283721735454124158e-01
3.596650000000000091e+03,2.019184990023008552e-01,1.184061261329594217e-01
3.598577999999999975e+03,2.001839571775070326e-01,1.030507004202663168e-01
3.600507000000000062e+03,1.984420337544774426e-01,9.037772200375382425e-02
3.602434999999999945e+03,1.966945347709723180e-01,1.335388861596191745e-01
3.604364000000000033e+03,1.949396474687103975e-01,1.123203618062929010e-01
3.606291999999999916e+03,1.931791913264921945e-01,1.257594857148269796e-02
3.608220999999999549e+03,1.914113401450014962e-01,-2.651027351955725919e-02
3.610149000000000342e+03,1.896379268440684385e-01,3.196664882450406253e-02
3.612077999999999975e+03,1.878571117833454096e-01,8.623161908695831102e-02
3.614005999999999858e+03,1.860707413237010499e-01,6.555161143561250014e-02
3.615934999999999945e+03,1.842769623837456905e-01,-3.142169826029217461e-04
3.617862999999999829e+03,1.824776347653900288e-01,1.231367764765600725e-02
