wavenumber (/cm),baseline value (/cm),baseline-subtracted absorbance (/cm),
3.290019000000000233e+03,5.349536249806767785e-01,6.661338147750939243e-16
3.291947000000000116e+03,5.343355735763175574e-01,-6.804270438274473420e-03
3.293875000000000000e+03,5.337029262868639989e-01,-4.313530707948931564e-03
3.295804000000000087e+03,5.330553436180700544e-01,2.105423115583038296e-03
3.297731999999999971e+03,5.323934969879466905e-01,1.148500046142730824e-02
3.299660999999999603e+03,5.317166998335984829e-01,6.823259974718443033e-03
3.301589000000000397e+03,5.310256538627982081e-01,-2.055889377712283306e-04
3.303518000000000029e+03,5.303196422228921847e-01,-2.317632638721311977e-03
3.305447000000000116e+03,5.295990195530038136e-01,-4.303765263314218714e-03
3.307375000000000000e+03,5.288641707859618180e-01,-3.962331243528405267e-03
3.309302999999999884e+03,5.281147261338219323e-01,-4.655922609320128913e-03
3.311231999999999971e+03,5.273502855228002772e-01,-4.817436550779596871e-03
3.313159999999999854e+03,5.265716415299941389e-01,-2.411802296727438844e-03
3.315089000000000397e+03,5.257779864334111153e-01,-2.489224646426757559e-03
3.317017000000000280e+03,5.249701430999351714e-01,-1.136474835906398084e-03
3.318945999999999913e+03,5.241472735177978848e-01,3.147762580564261725e-04
3.320875000000000000e+03,5.233097929056818032e-01,6.410411144403438399e-03
3.322802999999999884e+03,5.224581467759534803e-01,5.102527207661022857e-03
3.324730999999999767e+03,5.215919047611308201e-01,1.484304853956786019e-03
3.326659999999999854e+03,5.207106062078814546e-01,5.512148468266531154e-03
3.328587999999999738e+03,5.198151648523889889e-01,8.976765894249005839e-03
3.330517000000000280e+03,5.189046518135818076e-01,6.081435680621583018e-03
3.332445000000000164e+03,5.179800111174195365e-01,4.647906644213106730e-03
3.334374000000000251e+03,5.170402835930545393e-01,4.361014907486637782e-03
3.336302000000000135e+03,5.160864435562189101e-01,2.676116344847878636e-03
3.338230999999999767e+03,5.151175015462960971e-01,2.792530916217783599e-03
3.340159000000000106e+03,5.141344621687942151e-01,5.370870958427920172e-03
3.342087999999999738e+03,5.131363056733135863e-01,8.478317916113198294e-03
3.344015999999999622e+03,5.121240669551383462e-01,5.727996733221552006e-03
3.345945000000000164e+03,5.110966959740999016e-01,3.718463044597442035e-04
3.347873000000000047e+03,5.100552579152513033e-01,1.250198878689268156e-03
3.349802000000000135e+03,5.089986724486585956e-01,4.543606110624320849e-03
3.351730000000000018e+03,5.079280350491437446e-01,2.565858906645734905e-03
3.353659000000000106e+03,5.068422350969932211e-01,-1.143518139194110717e-03
3.355586999999999989e+03,5.057423983568014592e-01,-5.800857891711252989e-04
3.357515999999999622e+03,5.046273839190966726e-01,4.764330410784500813e-03
3.359444000000000415e+03,5.034983478382386579e-01,4.825968130226510056e-03
3.361373000000000047e+03,5.023541189149725028e-01,3.642301343398379743e-04
3.363302000000000135e+03,5.011952789617240001e-01,-3.743586273518451080e-03
3.365230000000000018e+03,5.000224400846207118e-01,-1.330501853569487913e-02
3.367157999999999902e+03,4.988350053224195335e-01,-1.479651405638149342e-02
3.369086999999999989e+03,4.976323474280377468e-01,-7.037201346726584816e-03
3.371014999999999873e+03,4.964157133251667631e-01,-5.449567089272244758e-03
3.372944000000000415e+03,4.951838409452307133e-01,-1.053938276003951735e-02
3.374872000000000298e+03,4.939380075016863714e-01,-6.478585643593826049e-03
3.376800999999999931e+03,4.926769206361925058e-01,-7.314422568484690856e-03
3.378729000000000269e+03,4.914018878519783584e-01,-8.094576057264823987e-03
3.380657999999999902e+03,4.901115865009302297e-01,-5.914647252205362804e-03
3.382585999999999785e+03,4.888073543760427242e-01,-1.130464916658180385e-02
3.384514999999999873e+03,4.874878385394367797e-01,-1.282792201447136016e-02
3.386442999999999756e+03,4.861544070738794687e-01,-3.517987225370999838e-03
3.388372000000000298e+03,4.848056767517121557e-01,4.157841566420739099e-03
3.390300000000000182e+03,4.834430459454885920e-01,4.122639942243377931e-04
3.392229000000000269e+03,4.820651011377670159e-01,-2.606143029867613592e-03
3.394157000000000153e+03,4.806732709908700940e-01,4.271078985942589057e-03
3.396085999999999785e+03,4.792661116975871494e-01,3.072735110265956138e-03
3.398014000000000124e+03,4.778450822100204221e-01,-4.691353867090075624e-04
3.399942999999999756e+03,4.764087084311832143e-01,-3.582923920439684551e-03
3.401870999999999640e+03,4.749584796029431288e-01,-9.372608525496595178e-03
3.403800000000000182e+03,4.734928913385481053e-01,-6.089892420631626280e-03
3.405728000000000065e+03,4.720134631696417671e-01,-4.539355888763418889e-03
3.407657000000000153e+03,4.705186604196889277e-01,-4.911920583547058072e-03
3.409585000000000036e+03,4.690100329101056786e-01,-4.839856075860016205e-04
3.411514000000000124e+03,4.674860156745985762e-01,2.282882145775655403e-03
3.413442000000000007e+03,4.659481888243490744e-01,8.942829880242308960e-03
3.415370999999999640e+03,4.643949571032841561e-01,4.124906863326005535e-03
3.417299000000000433e+03,4.628279309123577434e-01,-6.406536570109588880e-03
3.419228000000000065e+03,4.612454847057385621e-01,-1.952033398692565314e-02
3.421155999999999949e+03,4.596492591741458966e-01,-2.061772416100615679e-02
3.423085000000000036e+03,4.580375984819617941e-01,-1.173523335597592698e-02
3.425012999999999920e+03,4.564121736096993232e-01,-1.361934005432718919e-03
3.426942000000000007e+03,4.547712984319645102e-01,5.734189278655987820e-03
3.428869999999999891e+03,4.531166742190251284e-01,3.833395343504353292e-03
3.430799000000000433e+03,4.514465845557324997e-01,-9.751051926158993410e-04
3.432727000000000317e+03,4.497627610021268652e-01,-2.280570293331507514e-04
3.434655999999999949e+03,4.480634568532764206e-01,3.767583492990667082e-03
3.436584000000000287e+03,4.463504339589974279e-01,3.918541153075993932e-03
3.438512999999999920e+03,4.446219153245891675e-01,3.921136151682436122e-03
3.440440999999999804e+03,4.428796930896439221e-01,3.997936934758694605e-04
3.442369999999999891e+03,4.411219599696742932e-01,-3.752196482272651679e-03
3.444297999999999774e+03,4.393505383940556897e-01,-1.781362323565183203e-03
3.446227000000000317e+03,4.375635907885353504e-01,-1.000368972190934791e-02
3.448155000000000200e+03,4.357629698722469413e-01,-1.132797219099779262e-02
3.450084000000000287e+03,4.339468077811652336e-01,7.966934682894333264e-03
3.452012000000000171e+03,4.321169875242034664e-01,2.392335874260753670e-02
3.453940999999999804e+03,4.302716109475674955e-01,2.729060887002421332e-02
3.455869000000000142e+03,4.284125913499323701e-01,2.094820630040028497e-02
3.457797999999999774e+03,4.265380002877421362e-01,2.321157460791423155e-02
3.459725999999999658e+03,4.246497813494372053e-01,2.646862953323436685e-02
3.461655000000000200e+03,4.227459758016891556e-01,2.253459306521454764e-02
3.463583000000000084e+03,4.208285575227108666e-01,2.897202989420089025e-02
3.465512000000000171e+03,4.188955374894050010e-01,3.494972452945455110e-02
3.467440000000000055e+03,4.169489198697604593e-01,4.063494162351544148e-02
3.469369000000000142e+03,4.149866853508932252e-01,4.567106700650369611e-02
3.471297000000000025e+03,4.130108683905788780e-01,6.059324352780137701e-02
3.473225999999999658e+03,4.110194193861573808e-01,6.420936404250277008e-02
3.475154000000000451e+03,4.090144030851696755e-01,6.007664653610111927e-02
3.477083000000000084e+03,4.069937395951903625e-01,7.674022237729394291e-02
3.479010999999999967e+03,4.049595239535328517e-01,8.124081612994249468e-02
3.480940000000000055e+03,4.029096459779957229e-01,7.052365128587845255e-02
3.482867999999999938e+03,4.008462309956684066e-01,6.355398542108869897e-02
3.484797000000000025e+03,3.987671385345734620e-01,7.349828115935164163e-02
3.486724999999999909e+03,3.966745242115763403e-01,7.785322350831869187e-02
3.488654000000000451e+03,3.945662172649235799e-01,8.232279185549695733e-02
3.490582000000000335e+03,3.924444036012531001e-01,9.188006695060968454e-02
3.492510999999999967e+03,3.903068821690460766e-01,9.485311164761811575e-02
3.494439000000000306e+03,3.881558691647057913e-01,9.292544170250738311e-02
3.496367999999999938e+03,3.859891332469373992e-01,9.435713356400721175e-02
3.498295999999999822e+03,3.838089209019273085e-01,1.028126589403979274e-01
3.500224999999999909e+03,3.816129704986046534e-01,9.821698776387810526e-02
3.502152999999999793e+03,3.794035588129247571e-01,8.014814933362068849e-02
3.504082000000000335e+03,3.771783939240407335e-01,7.596119488412167442e-02
3.506010000000000218e+03,3.749397828976874791e-01,1.031951684085425924e-01
3.507939000000000306e+03,3.726854035232527451e-01,1.144803098791280505e-01
3.509867000000000189e+03,3.704175931562261326e-01,1.167960410994550724e-01
3.511795999999999822e+03,3.681339992962335828e-01,1.400310957725561245e-01
3.513724000000000160e+03,3.658369895885371648e-01,1.575344743162399030e-01
3.515652999999999793e+03,3.635241812429867991e-01,1.718576397494389063e-01
3.517580999999999676e+03,3.611979721946170230e-01,1.821132041850399563e-01
3.519510000000000218e+03,3.588559493635088415e-01,1.892542685990821205e-01
3.521438000000000102e+03,3.565005409744728126e-01,1.835373319579742812e-01
3.523367000000000189e+03,3.541293036578068154e-01,1.778771888448986704e-01
3.525295000000000073e+03,3.517446959280974284e-01,1.945514858619787901e-01
3.527224000000000160e+03,3.493442441258771680e-01,1.856974933915138681e-01
3.529152000000000044e+03,3.469304370554979755e-01,1.822038959171408123e-01
3.531080999999999676e+03,3.445007707677163467e-01,1.919221694085087027e-01
3.533009000000000015e+03,3.420577643566673487e-01,2.040196819256021588e-01
3.534938000000000102e+03,3.395988835833314567e-01,1.989387574740191234e-01
3.536865999999999985e+03,3.371266778316091006e-01,1.877249221065577789e-01
3.538795000000000073e+03,3.346385825727153929e-01,1.980859498125064899e-01
3.540722999999999956e+03,3.321371774803232313e-01,2.017420928860396145e-01
3.542652000000000044e+03,3.296198677358752605e-01,1.784687085510316962e-01
3.544579999999999927e+03,3.270892633028097407e-01,1.378102574886574949e-01
3.546509000000000015e+03,3.245427390728004013e-01,1.256180276608527269e-01
3.548436999999999898e+03,3.219829352990686289e-01,1.540736422245054804e-01
3.550365999999999985e+03,3.194071965835014737e-01,1.612621495287263063e-01
3.552294000000000324e+03,3.168181934690963431e-01,1.377203750886408784e-01
3.554222999999999956e+03,3.142132402679749248e-01,1.660936077765453600e-01
3.556150999999999840e+03,3.115950378128999887e-01,2.010622507943038428e-01
3.558079999999999927e+03,3.089608701262172019e-01,2.153481420858716078e-01
3.560007999999999811e+03,3.063134683304724604e-01,2.262804410836567470e-01
3.561936999999999898e+03,3.036500861582354105e-01,2.412007408629428529e-01
3.563864999999999782e+03,3.009734850218173108e-01,2.230611416592773733e-01
3.565794000000000324e+03,2.982808883640224451e-01,1.666039470046591919e-01
3.567722000000000207e+03,2.955750878869380927e-01,1.928551177089812274e-01
3.569650999999999840e+03,2.928532767435854112e-01,3.130208923706518931e-01
3.571579000000000178e+03,2.901182769258241478e-01,3.749366001803748905e-01
3.573507999999999811e+03,2.873672512969172033e-01,3.726327487030831609e-01
3.575435999999999694e+03,2.846030521384896872e-01,3.303544374271312201e-01
3.577364999999999782e+03,2.818228120240213741e-01,2.788681757638904468e-01
3.579292999999999665e+03,2.790294135249204999e-01,2.188667064317966204e-01
3.581222000000000207e+03,2.762199589248979237e-01,1.753707042378787051e-01
3.583150000000000091e+03,2.733973610851272440e-01,1.436060397496232710e-01
3.585079000000000178e+03,2.705586919995432993e-01,9.408885785360276977e-02
3.587007000000000062e+03,2.677068948191028142e-01,1.454074778408198654e-02
3.588935999999999694e+03,2.648390112479681591e-01,4.692633115425803858e-02
3.590864000000000033e+03,2.619580147268507631e-01,9.972771722553752660e-02
3.592792999999999665e+03,2.590609166701582922e-01,7.076672284135843149e-02
3.594720999999999549e+03,2.561507208083746434e-01,4.351383321852297925e-02
3.596650000000000091e+03,2.532244082661243567e-01,6.296897556445246735e-02
3.598577999999999975e+03,2.502850130636673498e-01,7.593542286151433451e-02
3.600507000000000062e+03,2.473294860358592473e-01,7.740772218797786763e-02
3.602434999999999945e+03,2.443608914927324349e-01,9.194920280314056171e-02
3.604364000000000033e+03,2.413761499793629639e-01,1.023330786494824896e-01
3.606291999999999916e+03,2.383783560955698988e-01,6.491195152539197544e-02
3.608220999999999549e+03,2.353644000966461647e-01,2.065353157749227897e-02
3.610149000000000342e+03,2.323374068721761887e-01,3.811861415116601925e-02
3.612077999999999975e+03,2.292942363876981915e-01,2.457498605781127665e-02
3.614005999999999858e+03,2.262380438225584101e-01,-1.077277088905148617e-03
3.615934999999999945e+03,2.231656588525225970e-01,2.017643420668302490e-02
3.617862999999999829e+03,2.200802669467094574e-01,-2.371965818250387770e-03
