wavenumber (/cm),baseline value (/cm),baseline-subtracted absorbance (/cm),
3.290019000000000233e+03,2.742618359738973055e-01,-6.137884436152818424e-03
3.291947000000000116e+03,2.724859565424200269e-01,5.849551379294659625e-03
3.293875000000000000e+03,2.707187084391176057e-01,1.769322073143198004e-02
3.295804000000000087e+03,2.689591817579248811e-01,1.096066912744286803e-02
3.297731999999999971e+03,2.672092007877857611e-01,-1.040770964146697786e-02
3.299660999999999603e+03,2.654669501957460653e-01,-5.875151500499331547e-03
3.301589000000000397e+03,2.637342363587773519e-01,-3.316715389532598479e-03
3.303518000000000029e+03,2.620092618558889086e-01,9.310922913614572138e-04
3.305447000000000116e+03,2.602929276371508394e-01,6.132981030136930301e-03
3.307375000000000000e+03,2.585861167383534109e-01,2.431590624181412252e-03
3.309302999999999884e+03,2.568879371677201817e-01,-6.016548537711052802e-03
3.311231999999999971e+03,2.551975148431342433e-01,1.529418987247455064e-03
3.313159999999999854e+03,2.535166024056731970e-01,-2.328345182933677648e-03
3.315089000000000397e+03,2.518434561702349583e-01,-4.607668658585861721e-03
3.317017000000000280e+03,2.501798108659443187e-01,1.597449152694885299e-03
3.318945999999999913e+03,2.485239407196573325e-01,8.250523399633946653e-03
3.320875000000000000e+03,2.468767108575207203e-01,3.707632106132230376e-03
3.322802999999999884e+03,2.452389684913978130e-01,-5.177458705750481727e-03
3.324730999999999767e+03,2.436098574534444339e-01,-8.457014955774555531e-03
3.326659999999999854e+03,2.419885394854563998e-01,-1.468502206798616427e-03
3.328587999999999738e+03,2.403766955806698746e-01,6.167806541852449698e-04
3.330517000000000280e+03,2.387726537018366457e-01,3.758567174211524531e-03
3.332445000000000164e+03,2.371780769302187508e-01,4.361531643872318398e-03
3.334374000000000251e+03,2.355913111405367744e-01,5.792659036536251804e-03
3.336302000000000135e+03,2.340140015020892861e-01,7.818244537052931875e-03
3.338230999999999767e+03,2.324445118015567857e-01,5.119327900213743732e-03
3.340159000000000106e+03,2.308844692962761513e-01,-1.056883089379789809e-03
3.342087999999999738e+03,2.293322556848949034e-01,-2.316412255258359920e-03
3.344015999999999622e+03,2.277894803127864520e-01,3.680230777614257320e-03
3.345945000000000164e+03,2.262545427905546802e-01,1.080789896154188412e-02
3.347873000000000047e+03,2.247290345516130827e-01,9.880471506168442275e-03
3.349802000000000135e+03,2.232113731185325634e-01,1.571478698801698215e-03
3.351730000000000018e+03,2.217031320127595961e-01,-1.172829510688844223e-02
3.353659000000000106e+03,2.202027466688321056e-01,7.748861363865433560e-04
3.355586999999999989e+03,2.187117726962259923e-01,1.126586010899277568e-02
3.357515999999999622e+03,2.172286634414497541e-01,6.596126866098783736e-03
3.359444000000000415e+03,2.157549566020140475e-01,1.136713100283182065e-02
3.361373000000000047e+03,2.142891234363872854e-01,1.723743760741491826e-02
3.363302000000000135e+03,2.128319305549091212e-01,1.286052051685215858e-02
3.365230000000000018e+03,2.113841266536429231e-01,1.454783979556451001e-02
3.367157999999999902e+03,2.099449540805462533e-01,2.082391824004981018e-02
3.369086999999999989e+03,2.085136730932219962e-01,2.389732411087841513e-02
3.371014999999999873e+03,2.070917676532921803e-01,1.658204408948482644e-02
3.372944000000000415e+03,2.056777627551156229e-01,-3.487785985452074300e-04
3.374872000000000298e+03,2.042731244483579900e-01,6.858690278763734938e-04
3.376800999999999931e+03,2.028763956393344614e-01,1.406209457501716997e-02
3.378729000000000269e+03,2.014890244657419061e-01,1.120529053891772264e-02
3.380657999999999902e+03,2.001095717458696299e-01,9.752497219647215942e-03
3.382585999999999785e+03,1.987394677054492576e-01,5.662209834158993260e-03
3.384514999999999873e+03,1.973772910747264575e-01,1.022289531856279687e-02
3.386442999999999756e+03,1.960244541674729390e-01,9.798472207177333360e-03
3.388372000000000298e+03,1.946795536258996151e-01,1.312100555396944479e-02
3.390300000000000182e+03,1.933439838518165033e-01,1.224129107828564322e-02
3.392229000000000269e+03,1.920163593993962081e-01,-2.064805550348047802e-04
3.394157000000000153e+03,1.906980567584799502e-01,-1.394968769976623335e-02
3.396085999999999785e+03,1.893877083952109075e-01,-3.521911563897361930e-03
3.398014000000000124e+03,1.880866728874650562e-01,7.260950598089399577e-03
3.399942999999999756e+03,1.867936006133472659e-01,9.098291278544445859e-03
3.401870999999999640e+03,1.855098322387682686e-01,4.500419392172716471e-03
3.403800000000000182e+03,1.842340360537981780e-01,6.679291066425285806e-03
3.405728000000000065e+03,1.829675348123913636e-01,-1.321682063090801051e-03
3.407657000000000153e+03,1.817090147165743019e-01,-7.202151768304076995e-07
3.409585000000000036e+03,1.804597806083325651e-01,-3.854002416347590554e-03
3.411514000000000124e+03,1.792185366016667558e-01,-1.189048441154572089e-02
3.413442000000000007e+03,1.779865696265972019e-01,5.055086585841195301e-04
3.415370999999999640e+03,1.767626017090808688e-01,2.687952317442299233e-02
3.417299000000000433e+03,1.755479018671763924e-01,2.349869645528346318e-02
3.419228000000000065e+03,1.743412100388113117e-01,1.320865016622096988e-02
3.421155999999999949e+03,1.731437773300807947e-01,9.586884366097780941e-03
3.423085000000000036e+03,1.719543615908669665e-01,1.504377447623417297e-02
3.425012999999999920e+03,1.707741960153015270e-01,1.442617677127788767e-02
3.426942000000000007e+03,1.696020563652389512e-01,5.123945498693327494e-03
3.428869999999999891e+03,1.684391579228439184e-01,3.027757268208919328e-03
3.430799000000000433e+03,1.672842943619308187e-01,1.842306817301730959e-02
3.432727000000000317e+03,1.661386630527026398e-01,1.766562399296311980e-02
3.434655999999999949e+03,1.650010755809425689e-01,1.466900829603767775e-02
3.436584000000000287e+03,1.638727114048847966e-01,1.235655234161958660e-02
3.438512999999999920e+03,1.627524000222742018e-01,1.502765589571231075e-02
3.440440999999999804e+03,1.616413029793832834e-01,2.533848118559944851e-04
3.442369999999999891e+03,1.605382676859239410e-01,8.388106964588359915e-03
3.444297999999999774e+03,1.594444377762052056e-01,2.181558086312351818e-02
3.446227000000000317e+03,1.583586785718953394e-01,2.633097660051841871e-02
3.448155000000000200e+03,1.572821157953452342e-01,1.727892800707753196e-02
3.450084000000000287e+03,1.562136326801848440e-01,1.288981559567670132e-02
3.452012000000000171e+03,1.551543370368051455e-01,1.696122680289624540e-02
3.453940999999999804e+03,1.541031300107960078e-01,2.603200512433856417e-02
3.455869000000000142e+03,1.530611015005831632e-01,2.482333465971464648e-02
3.457797999999999774e+03,1.520271705637252779e-01,1.419090958538893332e-02
3.459725999999999658e+03,1.510024091866828400e-01,1.183636061760395819e-02
3.461655000000000200e+03,1.499857543389762071e-01,1.980641714285003019e-02
3.463583000000000084e+03,1.489782600951006231e-01,1.573935407078952409e-02
3.465512000000000171e+03,1.479788813365434663e-01,1.247219042487257568e-02
3.467440000000000055e+03,1.469886542258382889e-01,1.842979870985539392e-02
3.469369000000000142e+03,1.460065515564323846e-01,1.574647733452705367e-02
3.471297000000000025e+03,1.450335915788958374e-01,6.172373006378517601e-03
3.473225999999999658e+03,1.440687649986411856e-01,1.332825270872151080e-02
3.475154000000000451e+03,1.431130721542732687e-01,1.811619159223143427e-02
3.477083000000000084e+03,1.421655216631698693e-01,1.866672437597216572e-02
3.479010999999999967e+03,1.412270959519723590e-01,2.144112399210973408e-02
3.480940000000000055e+03,1.402968215500184357e-01,2.518500510422150285e-02
3.482867999999999938e+03,1.393756629719877793e-01,1.530280860303490087e-02
3.484797000000000025e+03,1.384626646591868848e-01,1.626892900344101278e-02
3.486724999999999909e+03,1.375587732143230824e-01,1.892491737281565278e-02
3.488654000000000451e+03,1.366630509906716640e-01,1.657273652097757122e-02
3.490582000000000335e+03,1.357764266789800445e-01,1.417697499855918863e-02
3.492510999999999967e+03,1.348979805444798785e-01,1.754377155244402076e-02
3.494439000000000306e+03,1.340286233659551129e-01,2.000492742621640119e-02
3.496367999999999938e+03,1.331674533206061994e-01,2.216246280241307431e-02
3.498295999999999822e+03,1.323153632752518405e-01,1.734167307143952286e-02
3.500224999999999909e+03,1.314714693190559558e-01,1.392554838830628583e-02
3.502152999999999793e+03,1.306366464068666744e-01,1.407537596032781835e-02
3.504082000000000335e+03,1.298100285398184894e-01,1.543041880407658439e-02
3.506010000000000218e+03,1.289924727608013910e-01,2.253502024945008841e-02
3.507939000000000306e+03,1.281831309829062349e-01,3.006570405903197241e-02
3.509867000000000189e+03,1.273828423370559904e-01,3.110271218298077400e-02
3.511795999999999822e+03,1.265907766483103103e-01,3.496187945606976655e-02
3.513724000000000160e+03,1.258077551356322488e-01,4.087910413743367499e-02
3.515652999999999793e+03,1.250329655360378212e-01,4.592509597374760943e-02
3.517580999999999676e+03,1.242672111565248372e-01,3.953987178848894501e-02
3.519510000000000218e+03,1.235096976460798857e-01,3.628713366799241058e-02
3.521438000000000102e+03,1.227612103997390847e-01,2.103468894788429466e-02
3.523367000000000189e+03,1.220209729784471619e-01,8.053584337488928213e-03
3.525295000000000073e+03,1.212897528652714385e-01,1.768881190639648437e-02
3.527224000000000160e+03,1.205667915331307682e-01,1.403525879305700386e-02
3.529152000000000044e+03,1.198528385531272278e-01,2.074175604146732965e-02
3.531080999999999676e+03,1.191471533101360336e-01,3.251827073459834239e-02
3.533009000000000015e+03,1.184504674632993471e-01,2.898755676782815982e-02
3.534938000000000102e+03,1.177620583094558526e-01,1.827801624785996282e-02
3.536865999999999985e+03,1.170826395957913491e-01,1.732462974251181009e-02
3.538795000000000073e+03,1.164115065311026598e-01,2.341514770934427503e-02
3.540722999999999956e+03,1.157493549506032338e-01,1.946126946691784099e-02
3.542652000000000044e+03,1.150954979750640206e-01,1.940869587395699369e-02
3.544579999999999927e+03,1.144506135277367775e-01,1.451676764654097340e-02
3.546509000000000015e+03,1.138140326413470405e-01,1.124374927850357864e-02
3.548436999999999898e+03,1.131864153271884277e-01,2.056195373152558403e-02
3.550365999999999985e+03,1.125671105299517194e-01,2.996131444674876576e-02
3.552294000000000324e+03,1.119567603489599605e-01,3.018489855131933908e-02
3.554222999999999956e+03,1.113547316408727283e-01,3.913268681206272248e-02
3.556150999999999840e+03,1.107616485930478234e-01,3.754124050294427306e-02
3.558079999999999927e+03,1.101768959741136200e-01,2.594985146297812406e-02
3.560007999999999811e+03,1.096010800594608980e-01,2.440637567213244097e-02
3.561936999999999898e+03,1.090336035296743944e-01,3.583871706678376512e-02
3.563864999999999782e+03,1.084750547481903027e-01,2.991543919402728235e-02
3.565794000000000324e+03,1.079248543075550515e-01,7.151566941279607903e-03
3.567722000000000207e+03,1.073835726592413664e-01,-1.741447775737370307e-03
3.569650999999999840e+03,1.068506483077573677e-01,1.275140201843072418e-02
3.571579000000000178e+03,1.063266337926105365e-01,2.019433545249649242e-02
3.573507999999999811e+03,1.058109855302777902e-01,2.960560347251783853e-02
3.575435999999999694e+03,1.053042381483013656e-01,4.377497899988114227e-02
3.577364999999999782e+03,1.048058659751163191e-01,4.063681808825725383e-02
3.579292999999999665e+03,1.043163857263085248e-01,2.888491902671974643e-02
3.581222000000000207e+03,1.038352896422765070e-01,2.833526021792831529e-02
3.583150000000000091e+03,1.033630765266391194e-01,1.187923475015439934e-02
3.585079000000000178e+03,1.028992565317565777e-01,-6.462164267078573943e-03
3.587007000000000062e+03,1.024443105492860440e-01,-2.625884922589394321e-02
3.588935999999999694e+03,1.019977666435565311e-01,-1.141621957925131881e-02
3.590864000000000033e+03,1.015600877942528513e-01,1.273720950304424449e-02
3.592792999999999665e+03,1.011308199776745909e-01,1.587383985457124780e-02
3.594720999999999549e+03,1.007104082615430940e-01,1.014420497238033292e-02
3.596650000000000091e+03,1.002984165341143097e-01,2.333456718448090328e-03
3.598577999999999975e+03,9.989527195115144309e-02,1.028273364064702378e-02
3.600507000000000062e+03,9.950055631287568758e-02,2.613224890613574658e-02
3.602434999999999945e+03,9.911467886307789854e-02,2.345941246963390014e-02
3.604364000000000033e+03,9.873723931395161912e-02,2.583592005231105659e-02
3.606291999999999916e+03,9.836862899732246035e-02,9.880206044615480465e-03
3.608220999999999549e+03,9.800846553734743338e-02,-7.141736739584292337e-03
3.610149000000000342e+03,9.765712235389045759e-02,2.174191718802287454e-03
3.612077999999999975e+03,9.731423498306668307e-02,-1.016937685769825350e-03
3.614005999999999858e+03,9.698015893277833754e-02,-1.773225585728921416e-02
3.615934999999999945e+03,9.665454765110581548e-02,-1.155296330814259420e-02
3.617862999999999829e+03,9.633773873398254750e-02,-2.365367536026452555e-02
