wavenumber (/cm),baseline value (/cm),baseline-subtracted absorbance (/cm),
3.290019000000000233e+03,1.708695246971050352e-01,5.773159728050814010e-15
3.291947000000000116e+03,1.713116438636888006e-01,3.457228456907435188e-03
3.293875000000000000e+03,1.717458199195576185e-01,-1.228578540247271533e-03
3.295804000000000087e+03,1.721722718788871731e-01,-8.656549170977800856e-04
3.297731999999999971e+03,1.725905575934554292e-01,4.525006246246299213e-03
3.299660999999999603e+03,1.730011109696079075e-01,1.058136806114684525e-02
3.301589000000000397e+03,1.734035063428773782e-01,1.171764929551954992e-02
3.303518000000000029e+03,1.737981611358527800e-01,1.565943439070838217e-02
3.305447000000000116e+03,1.741848645762331671e-01,1.463340196617113342e-02
3.307375000000000000e+03,1.745634223776182381e-01,5.511134938318118515e-03
3.309302999999999884e+03,1.749340370682901380e-01,-3.937764934087040203e-03
3.311231999999999971e+03,1.752968946949078344e-01,1.392760477505916583e-03
3.313159999999999854e+03,1.756516190442791725e-01,3.856302670538935828e-03
3.315089000000000397e+03,1.759985780877197925e-01,8.508411660649084496e-03
3.317017000000000280e+03,1.763374120957923452e-01,7.337331613433972777e-03
3.318945999999999913e+03,1.766684725560558888e-01,2.700586157830420220e-03
3.320875000000000000e+03,1.769915816637244177e-01,-1.350388746669484163e-03
3.322802999999999884e+03,1.773065780999125707e-01,4.813645572035119002e-03
3.324730999999999767e+03,1.776136314253857762e-01,1.500799019623588748e-02
3.326659999999999854e+03,1.779128947192933907e-01,2.049157871966267308e-02
3.328587999999999738e+03,1.782040577034660345e-01,2.182296932356098118e-02
3.330517000000000280e+03,1.784874224141947963e-01,1.949487022327023311e-02
3.332445000000000164e+03,1.787626950570704309e-01,1.458958826073009085e-02
3.334374000000000251e+03,1.790301611846221164e-01,1.243675400643073914e-02
3.336302000000000135e+03,1.792895434861954129e-01,5.733755675034757360e-03
3.338230999999999767e+03,1.795411110305700220e-01,2.302318605962971887e-03
3.340159000000000106e+03,1.797846029908463095e-01,3.331892815304549060e-03
3.342087999999999738e+03,1.800202719520402894e-01,7.535180051687406788e-03
3.344015999999999622e+03,1.802478735710160151e-01,9.361632486766024996e-03
3.345945000000000164e+03,1.804676439490346951e-01,1.045034300343483658e-02
3.347873000000000047e+03,1.806793552267116354e-01,1.023583582641029999e-02
3.349802000000000135e+03,1.808832270215532390e-01,1.709440578366572261e-02
3.351730000000000018e+03,1.810790479579278411e-01,2.413903219118673782e-02
3.353659000000000106e+03,1.812670211695905920e-01,2.917939075957964867e-02
3.355586999999999989e+03,1.814469517646681851e-01,2.844773602657113543e-02
3.357515999999999622e+03,1.816190263931520832e-01,3.289169122101376352e-02
3.359444000000000415e+03,1.817830666469308909e-01,3.522998088335782541e-02
3.361373000000000047e+03,1.819392426922394890e-01,3.063112077467566863e-02
3.363302000000000135e+03,1.820874673849530723e-01,2.486313839323894825e-02
3.365230000000000018e+03,1.822276700668457039e-01,2.048621623324753394e-02
3.367157999999999902e+03,1.823599296380233881e-01,1.331388210475381584e-02
3.369086999999999989e+03,1.824843085169760570e-01,8.558561939687292508e-03
3.371014999999999873e+03,1.826006777468549558e-01,4.137439680917509577e-03
3.372944000000000415e+03,1.827091580426287720e-01,-2.248766616720354605e-03
3.374872000000000298e+03,1.828096369312088854e-01,-1.001280561713602246e-02
3.376800999999999931e+03,1.829022186438056252e-01,-1.305692507437417049e-02
3.378729000000000269e+03,1.829868071910834004e-01,-1.899333095622801615e-02
3.380657999999999902e+03,1.830634903205030639e-01,-2.282677084240458676e-02
3.382585999999999785e+03,1.831321885264820537e-01,-2.898586979395645358e-02
3.384514999999999873e+03,1.831929730727228645e-01,-2.973071771391588847e-02
3.386442999999999756e+03,1.832457809374048452e-01,-2.524298503805733063e-02
3.388372000000000298e+03,1.832906669004668032e-01,-1.843884956589092461e-02
3.390300000000000182e+03,1.833275844238482222e-01,-1.803121909300031689e-02
3.392229000000000269e+03,1.833565718037331038e-01,-2.059795111407813906e-02
3.394157000000000153e+03,1.833775989858157374e-01,-2.393771082178997034e-02
3.396085999999999785e+03,1.833906877825235426e-01,-2.676999812735103568e-02
3.398014000000000124e+03,1.833958246233038381e-01,-2.386926357950169830e-02
3.399942999999999756e+03,1.833930148368345669e-01,-1.669031213413196824e-02
3.401870999999999640e+03,1.833822613363178533e-01,-2.533845891320529731e-02
3.403800000000000182e+03,1.833635529666697295e-01,-2.525917272435851402e-02
3.405728000000000065e+03,1.833369091248524541e-01,-2.666868918077058837e-02
3.407657000000000153e+03,1.833023021720254775e-01,-2.412895641247292389e-02
3.409585000000000036e+03,1.832597679889111930e-01,-2.103702800755069546e-02
3.411514000000000124e+03,1.832092624529071401e-01,-2.471532023482714280e-02
3.413442000000000007e+03,1.831508379284905175e-01,-2.823005507667342151e-02
3.415370999999999640e+03,1.830844338093093882e-01,-2.831369755581469860e-02
3.417299000000000433e+03,1.830101189435957565e-01,-2.115457374322282647e-02
3.419228000000000065e+03,1.829278162412357744e-01,-1.264356647422748559e-02
3.421155999999999949e+03,1.828376110342198047e-01,-1.669595213394003963e-02
3.423085000000000036e+03,1.827394097486845226e-01,-1.807398570395046811e-02
3.425012999999999920e+03,1.826333142003697674e-01,-1.929594234575660039e-02
3.426942000000000007e+03,1.825192143316556326e-01,-1.126199159167451391e-02
3.428869999999999891e+03,1.823972284420403156e-01,-5.377657146607095484e-03
3.430799000000000433e+03,1.822672299901491044e-01,-1.129239308427787414e-02
3.432727000000000317e+03,1.821293537592350020e-01,-1.544342645261842506e-02
3.434655999999999949e+03,1.819834567241649381e-01,-1.148112680804214136e-02
3.436584000000000287e+03,1.818296901519520503e-01,-3.925682696220622603e-03
3.438512999999999920e+03,1.816678945337049100e-01,-1.010858187013630172e-03
3.440440999999999804e+03,1.814982376201914605e-01,3.950702100152803098e-05
3.442369999999999891e+03,1.813205434187654674e-01,7.315057699594174068e-03
3.444297999999999774e+03,1.811349961639532324e-01,-2.204893647643757504e-03
3.446227000000000317e+03,1.809414033793501630e-01,-1.154438567198767807e-02
3.448155000000000200e+03,1.807399657832391426e-01,-3.864849287433136382e-03
3.450084000000000287e+03,1.805304744154572205e-01,1.359254515583807610e-02
3.452012000000000171e+03,1.803131464780456383e-01,1.772040431412569284e-02
3.453940999999999804e+03,1.800877565270884162e-01,1.751522576554909172e-02
3.455869000000000142e+03,1.798545382483762722e-01,1.552663602934956089e-02
3.457797999999999774e+03,1.796132497142401974e-01,1.708479315621636019e-02
3.459725999999999658e+03,1.793641410942310443e-01,2.905058397566628869e-02
3.461655000000000200e+03,1.791069539769143404e-01,3.370944863259150992e-02
3.463583000000000084e+03,1.788419550156064020e-01,3.635562187162566516e-02
3.465512000000000171e+03,1.785688693151126216e-01,3.966132639784181180e-02
3.467440000000000055e+03,1.782879800125041214e-01,5.015097618507247113e-02
3.469369000000000142e+03,1.779989957288350411e-01,6.804387472782846835e-02
3.471297000000000025e+03,1.777022160849259791e-01,8.524838969326586913e-02
3.473225999999999658e+03,1.773973332180780460e-01,9.322708430289106118e-02
3.475154000000000451e+03,1.770846632328684223e-01,9.389576547169808940e-02
3.477083000000000084e+03,1.767638817828434128e-01,1.087822505563922348e-01
3.479010999999999967e+03,1.764353214563367800e-01,1.128032619546603943e-01
3.480940000000000055e+03,1.760986414231329178e-01,1.192871926868390720e-01
3.482867999999999938e+03,1.757541907553257232e-01,1.329382603164355192e-01
3.484797000000000025e+03,1.754016121389447846e-01,1.441612955963766929e-01
3.486724999999999909e+03,1.750412711298370283e-01,1.452066319456521981e-01
3.488654000000000451e+03,1.746727939302790134e-01,1.399329842617060837e-01
3.490582000000000335e+03,1.742965625798724716e-01,1.389317692001832416e-01
3.492510999999999967e+03,1.739121867971356039e-01,1.445174497359491550e-01
3.494439000000000306e+03,1.735200651054302767e-01,1.436588724528176098e-01
3.496367999999999938e+03,1.731197907395163327e-01,1.473760154114620580e-01
3.498295999999999822e+03,1.727117787065104437e-01,1.659294142105444125e-01
3.500224999999999909e+03,1.722956057574194233e-01,1.783660904215181864e-01
3.502152999999999793e+03,1.718717033831129726e-01,1.865858921434481177e-01
3.504082000000000335e+03,1.714396318508448758e-01,2.045855312432837136e-01
3.506010000000000218e+03,1.709998391352396396e-01,2.157559856550677058e-01
3.507939000000000306e+03,1.705518690197909137e-01,2.279821477556049913e-01
3.509867000000000189e+03,1.700961859628886685e-01,2.399041868236908570e-01
3.511795999999999822e+03,1.696323172642610899e-01,2.625645140498115149e-01
3.513724000000000160e+03,1.691607438660600593e-01,2.900428908030917574e-01
3.515652999999999793e+03,1.686809765842571807e-01,3.234836086906728303e-01
3.517580999999999676e+03,1.681935128447538119e-01,3.480471208924315052e-01
3.519510000000000218e+03,1.676978469797720805e-01,3.670271297210666583e-01
3.521438000000000102e+03,1.671944928989699264e-01,3.867049479211605023e-01
3.523367000000000189e+03,1.666829284508111186e-01,3.979771833851627472e-01
3.525295000000000073e+03,1.661636840287101791e-01,3.983420009666298611e-01
3.527224000000000160e+03,1.656362209973725186e-01,3.953860530007634599e-01
3.529152000000000044e+03,1.651010862339710172e-01,3.836516630670540051e-01
3.531080999999999676e+03,1.645577246194580567e-01,3.681092837682399255e-01
3.533009000000000015e+03,1.640066995147559936e-01,3.518180907927928036e-01
3.534938000000000102e+03,1.634474393170641804e-01,3.488027936745480284e-01
3.536865999999999985e+03,1.628805238710633319e-01,3.549426820935217552e-01
3.538795000000000073e+03,1.623053650901926659e-01,3.645385305295649747e-01
3.540722999999999956e+03,1.617225593028948083e-01,3.837615040708236558e-01
3.542652000000000044e+03,1.611315019388452896e-01,4.065616015094304370e-01
3.544579999999999927e+03,1.605328058102468702e-01,4.143970171161276417e-01
3.546509000000000015e+03,1.599258498630220515e-01,4.015125471546852065e-01
3.548436999999999898e+03,1.593112633931212940e-01,3.873142724875868748e-01
3.550365999999999985e+03,1.586884088627193989e-01,3.786443963562925452e-01
3.552294000000000324e+03,1.580579320515198560e-01,3.769174640342209948e-01
3.554222999999999956e+03,1.574191789379391082e-01,4.028541668216133464e-01
3.556150999999999840e+03,1.567728117854425562e-01,4.323119971614352020e-01
3.558079999999999927e+03,1.561181600886829557e-01,4.792975901443086162e-01
3.560007999999999811e+03,1.554559025948858419e-01,5.270333797909482199e-01
3.561936999999999898e+03,1.547853523149491650e-01,5.452981518788997395e-01
3.563864999999999782e+03,1.541072044798514895e-01,5.263030471510897756e-01
3.565794000000000324e+03,1.534207556167377362e-01,4.967947150263190004e-01
3.567722000000000207e+03,1.527267174403412753e-01,5.129326488224731362e-01
3.569650999999999840e+03,1.520243699940486692e-01,5.684098331746371136e-01
3.571579000000000178e+03,1.513144414763534229e-01,6.085169657929848652e-01
3.573507999999999811e+03,1.505961954468819641e-01,6.008763115428663593e-01
3.575435999999999694e+03,1.498703765878879324e-01,5.235874985286078642e-01
3.577364999999999782e+03,1.491362319752411736e-01,4.184970392269954376e-01
3.579292999999999665e+03,1.483945227749448037e-01,3.269885154356795276e-01
3.581222000000000207e+03,1.476444795791191922e-01,2.629683815578798267e-01
3.583150000000000091e+03,1.468868800375240369e-01,2.086229056101924773e-01
3.585079000000000178e+03,1.461209382585213490e-01,1.604056227852810323e-01
3.587007000000000062e+03,1.453474483756291846e-01,1.157587957995804828e-01
3.588935999999999694e+03,1.445656080134458676e-01,9.446235098003019637e-02
3.590864000000000033e+03,1.437762277892531415e-01,8.628621396284374967e-02
3.592792999999999665e+03,1.429784888438963009e-01,7.845580752143455072e-02
3.594720999999999549e+03,1.421732182784012366e-01,8.445679104126302406e-02
3.596650000000000091e+03,1.413595807498655432e-01,1.002517892408145705e-01
3.598577999999999975e+03,1.405384198430716935e-01,8.211302470492465311e-02
3.600507000000000062e+03,1.397088837313589238e-01,7.521842288560276479e-02
3.602434999999999945e+03,1.388718324832680651e-01,9.175444897059947813e-02
3.604364000000000033e+03,1.380263977883746662e-01,9.790277276148540153e-02
3.606291999999999916e+03,1.371734561989832457e-01,7.895422320455813825e-02
3.608220999999999549e+03,1.363121229209145469e-01,5.263195909213291834e-02
3.610149000000000342e+03,1.354432909902225646e-01,2.508606595292728336e-02
3.612077999999999975e+03,1.345660591289750130e-01,1.054018504623432939e-02
3.614005999999999858e+03,1.336813368569842453e-01,-6.160992055399550082e-04
3.615934999999999945e+03,1.327882064125578410e-01,6.880945497973245395e-03
3.617862999999999829e+03,1.318875937992682879e-01,1.361241242670008234e-03
