wavenumber (/cm),baseline value (/cm),baseline-subtracted absorbance (/cm),
3.290019000000000233e+03,2.630839387849697175e-01,4.662936703425657470e-15
3.291947000000000116e+03,2.628060182348388452e-01,-6.572442720848892250e-03
3.293875000000000000e+03,2.625194071129151041e-01,-6.806777649319473156e-03
3.295804000000000087e+03,2.622239499994698519e-01,-7.717843955258985034e-03
3.297731999999999971e+03,2.619199532263998265e-01,-7.838951525982684743e-03
3.299660999999999603e+03,2.616071014443548393e-01,-1.661978550553833145e-03
3.301589000000000397e+03,2.612857190201385293e-01,-2.567988304417401224e-03
3.303518000000000029e+03,2.609554725694938071e-01,-6.033537185354154175e-03
3.305447000000000116e+03,2.606165265296009892e-01,-5.390834768896013429e-03
3.307375000000000000e+03,2.602690633748867555e-01,-7.580858088134911910e-03
3.309302999999999884e+03,2.599129096483778767e-01,-7.036112616379153195e-03
3.311231999999999971e+03,2.595478738605336844e-01,-7.763208533589915916e-03
3.313159999999999854e+03,2.591743344828785212e-01,-7.640867177267196553e-03
3.315089000000000397e+03,2.587919040264328174e-01,-7.256117969855591099e-03
3.317017000000000280e+03,2.584009789976331462e-01,-7.623424506985498894e-03
3.318945999999999913e+03,2.580011538725877074e-01,-5.874086319642923826e-03
3.320875000000000000e+03,2.575926291582959493e-01,-1.161643500154840858e-02
3.322802999999999884e+03,2.571756233989965779e-01,-1.781559866565296524e-02
3.324730999999999767e+03,2.567499270679043377e-01,-1.434692814998816957e-02
3.326659999999999854e+03,2.563153126056594289e-01,-1.252183602504430837e-02
3.328587999999999738e+03,2.558722306234209043e-01,-5.511278389691121049e-03
3.330517000000000280e+03,2.554202214925762604e-01,2.182190008428452899e-03
3.332445000000000164e+03,2.549597538591914514e-01,-4.466915620822131672e-04
3.334374000000000251e+03,2.544903500597470725e-01,-7.785295182641149836e-03
3.336302000000000135e+03,2.540124967752159790e-01,-8.633767450745288841e-03
3.338230999999999767e+03,2.535256983071718651e-01,2.105824162783598297e-04
3.340159000000000106e+03,2.530304593714944872e-01,2.985153551677610650e-03
3.342087999999999738e+03,2.525262662348506382e-01,-1.797405514492034229e-03
3.344015999999999622e+03,2.520136416480269759e-01,1.002863161099210032e-04
3.345945000000000164e+03,2.514920538427816155e-01,-1.473503835052403232e-03
3.347873000000000047e+03,2.509620436048152214e-01,-5.611139291938238571e-03
3.349802000000000135e+03,2.504230611309701260e-01,-3.570379109019361508e-03
3.351730000000000018e+03,2.498756652418538948e-01,8.346454707754968894e-04
3.353659000000000106e+03,2.493192880994090643e-01,-6.669882749688049728e-05
3.355586999999999989e+03,2.487545065591483251e-01,2.612783593889167477e-03
3.357515999999999622e+03,2.481807347481037596e-01,1.130596214950818634e-03
3.359444000000000415e+03,2.475985675566967359e-01,9.715360141797635407e-04
3.361373000000000047e+03,2.470074010770542117e-01,2.923809310950264972e-03
3.363302000000000135e+03,2.464075350081600391e-01,3.917863044089031632e-03
3.365230000000000018e+03,2.457992870862550916e-01,1.189382963389107317e-04
3.367157999999999902e+03,2.451823485925554991e-01,-6.620747108554869698e-03
3.369086999999999989e+03,2.445563927757099520e-01,-6.181064285989634755e-03
3.371014999999999873e+03,2.439220686308676278e-01,-3.592805993674952347e-03
3.372944000000000415e+03,2.432787181454223457e-01,-3.873864226733303440e-03
3.374872000000000298e+03,2.426270083494301844e-01,-5.061241323949250415e-04
3.376800999999999931e+03,2.419662631953869436e-01,3.644341225698122244e-03
3.378729000000000269e+03,2.412971677482502741e-01,4.451015896826060469e-03
3.380657999999999902e+03,2.406190279256072984e-01,3.200662156817024595e-04
3.382585999999999785e+03,2.399325468273225681e-01,1.301801603655672324e-03
3.384514999999999873e+03,2.392370123360780809e-01,3.591090925631590380e-03
3.386442999999999756e+03,2.385331455866488426e-01,7.194169299732156020e-03
3.388372000000000298e+03,2.378202164268063967e-01,6.007268501312168496e-03
3.390300000000000182e+03,2.370989640262290976e-01,2.195362763073749335e-03
3.392229000000000269e+03,2.363686401977851403e-01,-4.587066538795925297e-03
3.394157000000000153e+03,2.356300021460633332e-01,-3.215409473316555022e-03
3.396085999999999785e+03,2.348822836490196408e-01,3.220978060672674559e-03
3.398014000000000124e+03,2.341262599461533256e-01,4.945466750399418743e-03
3.399942999999999756e+03,2.333611467805081219e-01,6.207565539788628683e-03
3.401870999999999640e+03,2.325877374264955222e-01,1.115086204792081759e-02
3.403800000000000182e+03,2.318052295922505834e-01,1.225567626646006936e-02
3.405728000000000065e+03,2.310144345870899230e-01,1.012175338632159693e-02
3.407657000000000153e+03,2.302145320842452492e-01,3.460688197096439822e-03
3.409585000000000036e+03,2.294063514279418570e-01,2.629511920334337560e-03
3.411514000000000124e+03,2.285890542564974481e-01,2.477571187929905605e-03
3.413442000000000007e+03,2.277634879490459952e-01,4.375946275718245460e-03
3.415370999999999640e+03,2.269287961090036276e-01,5.743177920985775842e-03
3.417299000000000433e+03,2.260858441504041139e-01,-6.018330637869162558e-05
3.419228000000000065e+03,2.252337576417584586e-01,-7.591154457340376638e-03
3.421155999999999949e+03,2.243734200320179895e-01,-6.601739710484499923e-03
3.423085000000000036e+03,2.235039388547725991e-01,6.123515156666536896e-03
3.425012999999999920e+03,2.226262155938822929e-01,1.102117967586568881e-02
3.426942000000000007e+03,2.217393397480389439e-01,4.816542150245073373e-03
3.428869999999999891e+03,2.208442308360023532e-01,1.458288873380952921e-03
3.430799000000000433e+03,2.199399603215592691e-01,3.367351473154034380e-03
3.432727000000000317e+03,2.190274657583763940e-01,6.799555419549019319e-03
3.434655999999999949e+03,2.181058005753335749e-01,4.421637977765957572e-03
3.436584000000000287e+03,2.171759203610044153e-01,9.675330321008424050e-04
3.438512999999999920e+03,2.162368605093618612e-01,-2.985198737836203264e-03
3.440440999999999804e+03,2.152895946438864172e-01,2.174389007105759219e-04
3.442369999999999891e+03,2.143331401236423517e-01,2.503310641545297699e-03
3.444297999999999774e+03,2.133684886070259523e-01,1.089696583884691705e-03
3.446227000000000317e+03,2.123946394181803754e-01,-5.181778079488275068e-03
3.448155000000000200e+03,2.114126022504123625e-01,-8.788549073723617155e-03
3.450084000000000287e+03,2.104213583929723796e-01,4.346766510412880535e-03
3.452012000000000171e+03,2.094219355740598587e-01,9.858478709446227839e-03
3.453940999999999804e+03,2.084132970480165881e-01,6.826307218484872763e-03
3.455869000000000142e+03,2.073964885779560063e-01,2.757321902798093305e-03
3.457797999999999774e+03,2.063704553833147770e-01,8.331309515130502774e-04
3.459725999999999658e+03,2.053362612621096872e-01,6.783077120947833549e-03
3.461655000000000200e+03,2.042928333988669465e-01,5.627556151295509679e-03
3.463583000000000084e+03,2.032412536265155723e-01,5.335806197259262973e-03
3.465512000000000171e+03,2.021804310946730965e-01,9.616600904090111257e-03
3.467440000000000055e+03,2.011114656711754378e-01,1.201189188022344645e-02
3.469369000000000142e+03,2.000332484707314507e-01,1.355076760594187135e-02
3.471297000000000025e+03,1.989468973960910603e-01,1.141096316968415181e-02
3.473225999999999658e+03,1.978512855270455617e-01,1.159762466000024972e-02
3.475154000000000451e+03,1.967475488012571105e-01,1.674835473870284197e-02
3.477083000000000084e+03,1.956345422636154296e-01,2.397127007213972760e-02
3.479010999999999967e+03,1.945134198866806940e-01,1.928701294683299317e-02
3.480940000000000055e+03,1.933830186804357254e-01,4.908834774503212373e-03
3.482867999999999938e+03,1.922445106523582581e-01,8.059245724207020345e-03
3.484797000000000025e+03,1.910967147775153308e-01,1.749657630302259292e-02
3.486724999999999909e+03,1.899408210982880263e-01,1.479561420855990406e-02
3.488654000000000451e+03,1.887756305548418112e-01,1.483698345041406519e-02
3.490582000000000335e+03,1.876023512244717750e-01,1.900763486302214922e-02
3.492510999999999967e+03,1.864197660124276013e-01,1.901538625221887990e-02
3.494439000000000306e+03,1.852291010309095043e-01,1.897247571974758351e-02
3.496367999999999938e+03,1.840291211502673718e-01,2.319842561121054914e-02
3.498295999999999822e+03,1.828210705176012141e-01,3.278566931854043354e-02
3.500224999999999909e+03,1.816036959683593466e-01,3.066636122749777371e-02
3.502152999999999793e+03,1.803782596845469044e-01,1.832014810645654634e-02
3.504082000000000335e+03,1.791434904667053019e-01,1.397600249975017306e-02
3.506010000000000218e+03,1.779006685317483516e-01,2.778645467121942936e-02
3.507939000000000306e+03,1.766485046453052377e-01,3.186517598539495566e-02
3.509867000000000189e+03,1.753882970592002266e-01,3.003758020158198150e-02
3.511795999999999822e+03,1.741187385041591540e-01,3.686518482247569395e-02
3.513724000000000160e+03,1.728411452669114112e-01,4.725083185474554526e-02
3.515652999999999793e+03,1.715541920432688272e-01,5.007743571990919129e-02
3.517580999999999676e+03,1.702592131548730237e-01,5.394854693169381932e-02
3.519510000000000218e+03,1.689548652626289282e-01,5.634889111393603933e-02
3.521438000000000102e+03,1.676425007230868403e-01,4.885927698598724334e-02
3.523367000000000189e+03,1.663207581622465625e-01,4.200587655718424074e-02
3.525295000000000073e+03,1.649910079715599664e-01,4.587620488977872668e-02
3.527224000000000160e+03,1.636518707421164009e-01,3.895826992877560180e-02
3.529152000000000044e+03,1.623047349002817441e-01,4.407414900758643839e-02
3.531080999999999676e+03,1.609482030022402199e-01,5.988963901352728492e-02
3.533009000000000015e+03,1.595836815092628314e-01,6.685548992372525312e-02
3.534938000000000102e+03,1.582097549426197958e-01,6.084264882921508466e-02
3.536865999999999985e+03,1.568278477984943464e-01,5.938485895680023496e-02
3.538795000000000073e+03,1.554365265632497994e-01,6.563550930009842688e-02
3.540722999999999956e+03,1.540372337679780657e-01,6.615599547920103518e-02
3.542652000000000044e+03,1.526285178641355600e-01,5.877973688930371310e-02
3.544579999999999927e+03,1.512118394177210945e-01,3.919007741641089559e-02
3.546509000000000015e+03,1.497857288452770774e-01,3.031088577831209108e-02
3.548436999999999898e+03,1.483516647477145511e-01,4.675963529866056234e-02
3.550365999999999985e+03,1.469081595066707990e-01,5.775562160323799432e-02
3.552294000000000324e+03,1.454567097579619883e-01,5.684735578539878986e-02
3.554222999999999956e+03,1.439958098483185012e-01,6.932232278423700045e-02
3.556150999999999840e+03,1.425269744484651824e-01,8.051213515116373287e-02
3.558079999999999927e+03,1.410486798702219602e-01,8.135663779866031398e-02
3.560007999999999811e+03,1.395624588192205806e-01,8.145238118696274121e-02
3.561936999999999898e+03,1.380667695723776234e-01,8.450549816606711673e-02
3.563864999999999782e+03,1.365631628702281830e-01,7.749851590547107705e-02
3.565794000000000324e+03,1.350500789547872671e-01,4.069114843739085607e-02
3.567722000000000207e+03,1.335290866014933187e-01,3.688674273843539630e-02
3.569650999999999840e+03,1.319986080174526677e-01,9.023821374788965066e-02
3.571579000000000178e+03,1.304602300130106585e-01,1.199069055566290842e-01
3.573507999999999811e+03,1.289123567603684961e-01,1.187132422502976681e-01
3.575435999999999694e+03,1.273565931047819788e-01,1.107945894582109680e-01
3.577364999999999782e+03,1.257913251835400814e-01,1.061386485372823874e-01
3.579292999999999665e+03,1.242181758768108324e-01,9.213056426849730585e-02
3.581222000000000207e+03,1.226355132869674236e-01,8.529229626628631600e-02
3.583150000000000091e+03,1.210449783290883374e-01,7.742464603325505124e-02
3.585079000000000178e+03,1.194449210706487463e-01,4.400538036697687616e-02
3.587007000000000062e+03,1.178370004616233757e-01,-7.765892098661630882e-03
3.588935999999999694e+03,1.162195485345840495e-01,1.546231883286042219e-02
3.590864000000000033e+03,1.145942422744106182e-01,5.445893441441329585e-02
3.592792999999999665e+03,1.129593956787697806e-01,5.002174514670598704e-02
3.594720999999999549e+03,1.113167037674536175e-01,3.481948420595815108e-02
3.596650000000000091e+03,1.096644625032130449e-01,4.295031566961093894e-02
3.598577999999999975e+03,1.080043849407505974e-01,4.927881184391447178e-02
3.600507000000000062e+03,1.063347490079067370e-01,4.187131066128491064e-02
3.602434999999999945e+03,1.046572857942997814e-01,4.927067834235177024e-02
3.604364000000000033e+03,1.029702551928561860e-01,5.687206974144576321e-02
3.606291999999999916e+03,1.012754063281047223e-01,3.698475753029661917e-02
3.608220999999999549e+03,9.957098105806139188e-02,1.722759677467911033e-02
3.610149000000000342e+03,9.785874654216009105e-02,2.808575801805046623e-02
3.612077999999999975e+03,9.613692660351880193e-02,1.711705391897311301e-02
3.614005999999999858e+03,9.440730643647299303e-02,7.785459060512422980e-03
3.615934999999999945e+03,9.266809182923019250e-02,2.660613911836584577e-02
3.617862999999999829e+03,9.092108601103987553e-02,8.452851228100133341e-03
