449.3401,-0.2937804
451.2686,-0.28212735
453.1971,-0.27632
455.1256,-0.2046725
457.0541,-0.21447
458.9826,-0.29174115
460.9111,-0.52537385
462.8396,-0.23454105
464.7681,-0.2136056
466.6966,-0.26579815
468.6251,-0.2796802
470.5536,-0.2442766
472.4821,-0.27417565
474.4106,-0.21524175
476.3391,-0.13081605
478.2676,-0.0954601
480.1961,-0.2001983
482.1246,-0.2022669
484.0531,-0.1691233
485.9816,-0.14601365
487.9101,-0.143752
489.8386,-0.1500974
491.7671,-0.1810564
493.6956,-0.1869136
495.6241,-0.15540395
497.5526,-0.14679085
499.4811,-0.12165835
501.4096,-0.06074955
503.3381,-0.05222095
505.2666,-0.06023235
507.1951,-0.0876155
509.1236,-0.0957703
511.0521,-0.1172846
512.9806,-0.05259065
514.9091,-0.0113671
516.8376,-0.0234474
518.7661,-0.03538905
520.6946,-0.0096457
522.6231,-0.0280279
524.5516,-0.02735295
526.4801,0.00042315
528.4086,0.07882545
530.3371,0.0749691
532.2656,0.1170773
534.1941,0.141382
536.1226,0.13649795
538.0511,0.1653028
539.9796,0.20268725
541.9081,0.1824739
543.8365,0.21090585
545.7651,0.2293585
547.6935,0.23769415
549.6221,0.26757085
551.5506,0.3190885
553.4791,0.35728794
555.4076,0.415411785
557.3361,0.458728235
559.2646,0.471682775
561.1931,0.48036775
563.1216,0.51176985
565.05,0.59308305
566.9786,0.65809875
568.907,0.69150885
570.8356,0.74004635
572.764,0.80086665
574.6926,0.86444415
576.621,0.88656805
578.5496,0.9094689
580.478,0.95908235
582.4066,1.03214685
584.335,1.07182025
586.2635,1.1044332
588.192,1.1328528
590.1205,1.13178865
592.049,1.15169725
593.9775,1.21793175
595.906,1.25608935
597.8345,1.2710647
599.7631,1.2960235
601.6915,1.3038595
603.6201,1.3319905
605.5485,1.3937655
607.4771,1.387393
609.4055,1.3880945
611.334,1.4200165
613.2625,1.4448305
615.191,1.46952
617.1195,1.4659535
619.048,1.4826855
620.9765,1.5319225
622.905,1.5467595
624.8335,1.524949
626.762,1.563232
628.6905,1.591731
630.619,1.5916425
632.5475,1.5911415
634.476,1.599168
636.4045,1.6020475
638.333,1.621237
640.2615,1.6233605
642.19,1.6215905
644.1185,1.6285725
646.047,1.6235165
647.9755,1.6120155
649.904,1.6351505
651.8325,1.658859
653.761,1.683903
655.6895,1.7025145
657.618,1.704571
659.5465,1.7051565
661.475,1.730866
663.4035,1.752688
665.332,1.740738
667.2605,1.5982165
669.189,1.600351
671.1175,1.7121745
673.046,1.737721
674.9745,1.764637
676.903,1.8013545
678.8315,1.824903
680.7599,1.808987
682.6885,1.786814
684.6169,1.776192
686.5455,1.7667855
688.4739,1.799287
690.4025,1.8573495
692.3309,1.8711795
694.2595,1.857922
696.188,1.863353
698.1165,1.884474
700.045,1.8876095
701.9734,1.8616295
703.902,1.8609655
705.8304,1.8989
707.759,1.8963195
709.6874,1.888038
711.616,1.9192045
713.5444,1.9133585
715.473,1.8933635
717.4014,1.8940815
719.33,1.907831
721.2584,1.9109195
723.187,1.9198985
725.1154,1.937645
727.0439,1.929725
728.9724,1.955504
730.9009,1.977381
732.8294,1.9421935
734.7579,1.9236555
736.6864,1.921995
738.6149,1.921016
740.5434,1.927804
742.4719,1.916662
744.4004,1.911348
746.3289,1.9324135
748.2574,1.9388935
750.1859,1.9431375
752.1144,1.9672825
754.0429,1.9714245
755.9714,1.9720805
757.8999,1.9736545
759.8284,1.9353915
761.7569,1.916753
763.6854,1.9506065
765.6139,1.9837065
767.5424,1.9652975
769.4709,1.936797
771.3994,1.9346385
773.3279,1.9593115
775.2564,1.9645865
777.1849,1.9774145
779.1134,1.9782265
781.0419,1.9740055
782.9704,1.9569235
784.8989,1.951046
786.8274,1.960263
788.7559,1.97866
790.6844,1.9958055
792.6129,1.993821
794.5414,1.955045
796.4699,1.9471315
798.3984,1.959627
800.3269,1.9649365
802.2554,1.979151
804.1839,1.998926
806.1124,2.0107925
808.0409,2.0051415
809.9694,2.002163
811.8979,2.024974
813.8264,2.0180635
815.7549,2.0000285
817.6833,1.994636
819.6119,2.0009445
821.5403,2.0349915
823.4689,2.04018
825.3973,2.03176
827.3259,2.0750205
829.2543,2.1204925
831.1829,2.1025535
833.1113,2.077309
835.0399,2.0715355
836.9683,2.074805
838.8969,2.093176
840.8253,2.1114835
842.7538,2.0872025
844.6824,2.069272
846.6108,2.0589975
848.5394,2.049931
850.4678,2.070812
852.3964,2.0903795
854.3248,2.0870255
856.2534,2.049558
858.1818,2.0260425
860.1104,2.0639535
862.0388,2.091398
863.9673,2.056002
865.8958,2.0320665
867.8243,2.0674975
869.7528,2.0845335
871.6813,2.0502915
873.6098,2.026881
875.5383,2.028332
877.4668,2.055355
879.3953,2.084669
881.3238,2.1003445
883.2523,2.0952425
885.1808,2.1088695
887.1093,2.1170035
889.0378,2.105283
890.9663,2.100491
892.8948,2.087805
894.8233,2.0818925
896.7518,2.0652985
898.6803,2.085681
900.6088,2.117923
902.5373,2.1213185
904.4658,2.095135
906.3943,2.076893
908.3228,2.082695
910.2513,2.1125675
912.1798,2.1233135
914.1083,2.1282265
916.0368,2.121054
917.9653,2.098994
919.8938,2.1087245
921.8223,2.1350475
923.7508,2.1568195
925.6793,2.1553875
927.6078,2.1368545
929.5363,2.13206
931.4648,2.138574
933.3932,2.1385615
935.3218,2.1440275
937.2502,2.1343435
939.1788,2.1447055
941.1072,2.188525
943.0358,2.2154465
944.9643,2.172169
946.8928,2.1471245
948.8213,2.1674705
950.7498,2.1984285
952.6783,2.172705
954.6068,2.174263
956.5353,2.177624
958.4637,2.159258
960.3923,2.1885065
962.3207,2.2066045
964.2493,2.173407
966.1777,2.152682
968.1063,2.155815
970.0347,2.150039
971.9633,2.1586255
973.8917,2.153035
975.8203,2.170816
977.7487,2.202136
979.6772,2.2010155
981.6057,2.1845615
983.5342,2.1828605
985.4627,2.1969205
987.3912,2.190349
989.3197,2.1818205
991.2482,2.1647805
993.1768,2.168437
995.1052,2.188338
997.0338,2.195055
998.9622,2.172859
1000.891,2.1740405
1002.819,2.210492
1004.748,2.235728
1006.676,2.24783
1008.605,2.246523
1010.533,2.243787
1012.462,2.260347
1014.39,2.2329135
1016.319,2.2074175
1018.247,2.183737
1020.176,2.167176
1022.104,2.1986675
1024.033,2.2332245
1025.961,2.223281
1027.89,2.22305
1029.818,2.215211
1031.747,2.236437
1033.675,2.2402455
1035.604,2.203549
1037.532,2.1985005
1039.461,2.204105
1041.389,2.2210845
1043.318,2.2077075
1045.246,2.201536
1047.175,2.2282395
1049.103,2.2527035
1051.032,2.251786
1052.96,2.245325
1054.889,2.2552135
1056.817,2.275767
1058.746,2.251788
1060.674,2.2276245
1062.603,2.2094955
1064.531,2.2348175
1066.46,2.2564695
1068.388,2.2598485
1070.317,2.2909345
1072.245,2.2889345
1074.174,2.2659315
1076.102,2.2824425
1078.031,2.290947
1079.959,2.2503435
1081.888,2.244456
1083.816,2.261045
1085.745,2.3073805
1087.673,2.3129135
1089.602,2.287025
1091.53,2.288894
1093.459,2.299962
1095.387,2.272261
1097.316,2.273626
1099.244,2.297866
1101.173,2.32152
1103.101,2.3360765
1105.03,2.3409065
1106.958,2.3305025
1108.887,2.316486
1110.815,2.297729
1112.744,2.2582335
1114.672,2.2897415
1116.601,2.365128
1118.529,2.368234
1120.458,2.3480455
1122.386,2.3431775
1124.315,2.336857
1126.243,2.354117
1128.172,2.358945
1130.1,2.3454675
1132.029,2.3734235
1133.957,2.3842775
1135.886,2.331576
1137.814,2.3280175
1139.743,2.358553
1141.671,2.3786505
1143.6,2.3712675
1145.528,2.3846275
1147.457,2.3908555
1149.385,2.3673485
1151.314,2.347581
1153.242,2.355906
1155.171,2.365272
1157.099,2.372932
1159.028,2.3869705
1160.956,2.3772375
1162.885,2.352277
1164.813,2.3613545
1166.742,2.3731165
1168.67,2.3768535
1170.599,2.346716
1172.527,2.311818
1174.456,2.3370075
1176.384,2.370965
1178.313,2.3929565
1180.241,2.3847445
1182.17,2.3933835
1184.098,2.390828
1186.027,2.354722
1187.955,2.337796
1189.884,2.344884
1191.812,2.372338
1193.741,2.403464
1195.669,2.4095105
1197.598,2.3934495
1199.526,2.3805775
1201.455,2.367623
1203.383,2.3465125
1205.312,2.345534
1207.24,2.3685945
1209.169,2.4226835
1211.097,2.4145915
1213.026,2.378468
1214.954,2.370037
1216.883,2.382847
1218.811,2.3920115
1220.74,2.38501
1222.668,2.403754
1224.597,2.422501
1226.525,2.433328
1228.453,2.427661
1230.382,2.422191
1232.311,2.4323325
1234.239,2.4448645
1236.167,2.4324225
1238.096,2.4196
1240.025,2.419437
1241.953,2.405297
1243.882,2.3848445
1245.81,2.3905285
1247.739,2.41905
1249.667,2.432519
1251.596,2.439832
1253.524,2.4400955
1255.453,2.4246135
1257.381,2.385884
1259.31,2.3724595
1261.238,2.370893
1263.167,2.391297
1265.095,2.399001
1267.024,2.3988825
1268.952,2.4098805
1270.88,2.424848
1272.809,2.4340415
1274.738,2.4467855
1276.666,2.4464465
1278.594,2.416515
1280.523,2.4146245
1282.452,2.432968
1284.38,2.4389965
1286.308,2.423371
1288.237,2.426292
1290.166,2.444119
1292.094,2.4271555
1294.022,2.421943
1295.951,2.450214
1297.88,2.4957235
1299.808,2.4854085
1301.736,2.4752315
1303.665,2.4895845
1305.594,2.4847745
1307.522,2.480808
1309.45,2.461241
1311.379,2.443733
1313.307,2.462836
1315.236,2.4601545
1317.164,2.418727
1319.093,2.3993885
1321.021,2.437278
1322.95,2.4759575
1324.878,2.4776385
1326.807,2.443812
1328.735,2.4336485
1330.664,2.449745
1332.592,2.485525
1334.521,2.4670185
1336.449,2.442814
1338.378,2.4242765
1340.307,2.4132625
1342.235,2.4356695
1344.163,2.418207
1346.092,2.42086
1348.021,2.472539
1349.949,2.461911
1351.877,2.4177705
1353.806,2.392254
1355.734,2.4016035
1357.663,2.404007
1359.591,2.3886625
1361.52,2.3738055
1363.448,2.3997435
1365.377,2.413768
1367.305,2.375829
1369.234,2.34066
1371.162,2.3505955
1373.091,2.350655
1375.019,2.358293
1376.948,2.3736225
1378.876,2.3928545
1380.805,2.380649
1382.733,2.3726185
1384.662,2.406627
1386.59,2.387248
1388.519,2.373487
1390.447,2.422464
1392.376,2.4209055
1394.304,2.368052
1396.233,2.3423165
1398.161,2.338074
1400.09,2.3492215
1402.018,2.388892
1403.947,2.378826
1405.875,2.3382015
1407.804,2.339741
1409.732,2.3369705
1411.661,2.3342135
1413.589,2.3485085
1415.518,2.3425825
1417.446,2.296421
1419.375,2.2774975
1421.303,2.3159725
1423.232,2.296324
1425.16,2.3008535
1427.089,2.324766
1429.017,2.309331
1430.946,2.306265
1432.874,2.2979405
1434.803,2.254758
1436.731,2.2211565
1438.66,2.246303
1440.588,2.2504285
1442.517,2.2386505
1444.445,2.2096875
1446.374,2.1828125
1448.302,2.173035
1450.231,2.1843835
1452.159,2.1861235
1454.088,2.186789
1456.016,2.1404195
1457.945,2.0960125
1459.873,2.148769
1461.802,2.18986
1463.73,2.1796785
1465.659,2.165282
1467.587,2.1705865
1469.516,2.169275
1471.444,2.1415305
1473.373,2.105771
1475.301,2.1013795
1477.23,2.0958795
1479.158,2.106489
1481.087,2.094068
1483.015,2.0704995
1484.944,2.034165
1486.872,2.000346
1488.801,1.9671685
1490.729,1.95826
1492.658,1.956889
1494.586,1.9303425
1496.515,1.897169
1498.443,1.890275
1500.372,1.8827305
1502.3,1.864656
1504.229,1.8434885
1506.157,1.801376
1508.086,1.788028
1510.014,1.805239
1511.943,1.80728
1513.871,1.80453
1515.8,1.8051565
1517.728,1.806131
1519.657,1.7982885
1521.585,1.803142
1523.514,1.8126865
1525.442,1.806957
1527.371,1.8028145
1529.299,1.804837
1531.228,1.794365
1533.156,1.775538
1535.085,1.789086
1537.013,1.795143
1538.942,1.7761425
1540.87,1.764641
1542.799,1.7931195
1544.727,1.810924
1546.656,1.8337125
1548.584,1.8538305
1550.513,1.8703585
1552.441,1.882778
1554.37,1.8856275
1556.298,1.8846005
1558.227,1.879259
1560.155,1.906664
1562.084,1.928074
1564.012,1.9385775
1565.941,1.9504545
1567.869,1.9479365
1569.798,1.950101
1571.726,1.978795
1573.655,1.983007
1575.583,1.97584
1577.512,2.014526
1579.44,2.045884
1581.369,2.060507
1583.297,2.077118
1585.226,2.106699
1587.154,2.1269975
1589.083,2.1378935
1591.011,2.129718
1592.94,2.123883
1594.868,2.107881
1596.797,2.089599
1598.725,2.0775355
1600.654,2.049513
1602.582,2.0235725
1604.511,2.0125185
1606.439,1.9933605
1608.368,1.956971
1610.296,1.9283255
1612.225,1.9038515
1614.153,1.882899
1616.082,1.8560875
1618.01,1.8282965
1619.939,1.815984
1621.867,1.8088225
1623.796,1.7992805
1625.724,1.7955585
1627.653,1.793312
1629.581,1.795783
1631.51,1.79861
1633.438,1.798045
1635.367,1.7960865
1637.295,1.7989615
1639.224,1.815068
1641.152,1.850127
1643.081,1.889445
1645.009,1.899413
1646.938,1.942563
1648.866,2.01195
1650.795,2.0447355
1652.723,2.1063335
1654.652,2.2467275
1656.58,2.2981605
1658.509,2.389683
1660.437,2.4917485
1662.366,2.5424265
1664.294,2.5523265
1666.223,2.560404
1668.151,2.5439525
1670.08,2.5360545
1672.008,2.5979895
1673.937,2.6038225
1675.865,2.619007
1677.794,2.6130275
1679.722,2.585026
1681.651,2.5507365
1683.579,2.4162315
1685.508,2.4178595
1687.436,2.5136555
1689.365,2.5080355
1691.293,2.451777
1693.222,2.4178
1695.15,2.3711225
1697.079,2.407608
1699.007,2.417118
1700.936,2.429471
1702.864,2.4503885
1704.793,2.394663
1706.721,2.386229
1708.65,2.442336
1710.578,2.454511
1712.507,2.46321
1714.435,2.437231
1716.364,2.366158
1718.292,2.336866
1720.221,2.4431935
1722.149,2.4821185
1724.078,2.4733335
1726.006,2.5118525
1727.935,2.522718
1729.863,2.5088805
1731.792,2.5272175
1733.72,2.527303
1735.649,2.5338845
1737.577,2.569028
1739.506,2.497457
1741.434,2.5031385
1743.363,2.5297
1745.291,2.548804
1747.22,2.4977625
1749.148,2.47743
1751.077,2.511411
1753.005,2.575665
1754.934,2.553259
1756.862,2.52551
1758.791,2.5775
1760.719,2.549004
1762.648,2.5376185
1764.576,2.617123
1766.505,2.623744
1768.433,2.548928
1770.362,2.458094
1772.29,2.469745
1774.219,2.5463735
1776.147,2.596497
1778.076,2.604251
1780.004,2.578528
1781.933,2.553475
1783.861,2.5390735
1785.79,2.5982285
1787.718,2.61801
1789.647,2.583947
1791.575,2.5809165
1793.504,2.57143
1795.432,2.6007535
1797.361,2.660525
1799.289,2.634574
1801.218,2.6100865
1803.146,2.606101
1805.075,2.5982775
1807.003,2.616241
1808.932,2.643613
1810.86,2.660895
1812.789,2.638863
1814.717,2.6446845
1816.646,2.650659
1818.574,2.648323
1820.503,2.662571
1822.431,2.673293
1824.36,2.6433585
1826.288,2.6394215
1828.217,2.606791
1830.145,2.550684
1832.074,2.6077135
1834.002,2.6493125
1835.931,2.6511185
1837.859,2.6440955
1839.788,2.6796615
1841.716,2.6814335
1843.645,2.692446
1845.573,2.750985
1847.502,2.7150295
1849.43,2.7251285
1851.359,2.748414
1853.287,2.710773
1855.216,2.7118325
1857.144,2.736682
1859.073,2.7224875
1861.001,2.725276
1862.93,2.728445
1864.858,2.754864
1866.786,2.776496
1868.715,2.751596
1870.644,2.738518
1872.572,2.8128045
1874.5,2.8262165
1876.429,2.779822
1878.358,2.8103665
1880.286,2.8266635
1882.215,2.7813295
1884.143,2.7859145
1886.072,2.8277895
1888.0,2.8694175
1889.929,2.8392025
1891.857,2.7879365
1893.786,2.726219
1895.714,2.681504
1897.643,2.7068875
1899.571,2.749515
1901.5,2.7299575
1903.428,2.7294285
1905.357,2.78783
1907.285,2.7938795
1909.214,2.786272
1911.142,2.781012
1913.071,2.7950935
1914.999,2.822025
1916.927,2.8300965
1918.856,2.7765925
1920.785,2.759436
1922.713,2.7573455
1924.641,2.739465
1926.57,2.696756
1928.499,2.717517
1930.427,2.761228
1932.355,2.668758
1934.284,2.6153755
1936.213,2.6099955
1938.141,2.6305845
1940.069,2.6733135
1941.998,2.761117
1943.927,2.6939285
1945.855,2.649122
1947.783,2.610307
1949.712,2.6145755
1951.641,2.6296835
1953.569,2.6389255
1955.497,2.599676
1957.426,2.5802945
1959.354,2.6251665
1961.283,2.587376
1963.211,2.5040415
1965.14,2.5091355
1967.068,2.530768
1968.997,2.5232175
1970.925,2.573733
1972.854,2.6227995
1974.782,2.568705
1976.711,2.5100645
1978.639,2.512757
1980.568,2.520204
1982.496,2.504792
1984.425,2.491791
1986.354,2.488832
1988.282,2.473393
1990.21,2.451222
1992.139,2.455846
1994.068,2.462138
1995.996,2.5014995
1997.924,2.5097545
1999.853,2.477643
2001.781,2.481513
2003.71,2.4676325
2005.638,2.4689055
2007.567,2.5259245
2009.495,2.5527555
2011.424,2.5125455
2013.352,2.4794045
2015.281,2.492078
2017.209,2.55637
2019.138,2.558302
2021.066,2.5115155
2022.995,2.533902
2024.923,2.543101
2026.852,2.5390865
2028.78,2.526417
2030.709,2.495664
2032.637,2.4643305
2034.566,2.498903
2036.494,2.4707545
2038.423,2.3770785
2040.351,2.3173105
2042.28,2.2314435
2044.208,2.136272
2046.137,2.0248025
2048.065,1.8868245
2049.994,1.7456525
2051.922,1.6164775
2053.851,1.494943
2055.779,1.3857025
2057.708,1.292818
2059.636,1.2128535
2061.565,1.14526755
2063.493,1.08847645
2065.422,1.03987075
2067.35,0.9961935
2069.279,0.95540875
2071.207,0.91955975
2073.136,0.8890248
2075.064,0.86065165
2076.993,0.83441855
2078.921,0.8100207
2080.85,0.7877114
2082.778,0.76663565
2084.707,0.74732505
2086.635,0.72986435
2088.564,0.71454885
2090.492,0.6994563
2092.421,0.684831
2094.349,0.67178565
2096.278,0.659629
2098.206,0.64776775
2100.135,0.6372052
2102.063,0.6271313
2103.992,0.61770305
2105.92,0.6087971
2107.849,0.60092695
2109.777,0.5918447
2111.706,0.58370025
2113.634,0.57614355
2115.563,0.5682365
2117.491,0.5604363
2119.42,0.5534347
2121.348,0.54657295
2123.277,0.54033795
2125.205,0.53368285
2127.134,0.5273729
2129.062,0.52159265
2130.991,0.5158748
2132.919,0.5096698
2134.848,0.50392875
2136.776,0.4985399
2138.705,0.49329405
2140.633,0.4879874
2142.562,0.4828389
2144.49,0.4774628
2146.419,0.4724649
2148.347,0.46731515
2150.276,0.46210115
2152.204,0.456798
2154.133,0.4521396
2156.061,0.44752675
2157.99,0.442776
2159.918,0.43766755
2161.847,0.4329593
2163.775,0.42851265
2165.704,0.42411005
2167.632,0.41941855
2169.561,0.41511955
2171.489,0.41058615
2173.418,0.40621755
2175.346,0.40124165
2177.275,0.3968324
2179.203,0.39234085
2181.132,0.38783045
2183.06,0.38359255
2184.989,0.3795387
2186.917,0.37487195
2188.846,0.3704252
2190.774,0.3658291
2192.703,0.36141235
2194.631,0.3570187
2196.56,0.35284445
2198.488,0.34831445
2200.417,0.34409455
2202.345,0.33952285
2204.274,0.33530345
2206.202,0.33110795
2208.131,0.3272521
2210.059,0.3230228
2211.988,0.3188996
2213.916,0.3146429
2215.845,0.3108674
2217.773,0.30695715
2219.702,0.30297875
2221.63,0.2991472
2223.559,0.2957576
2225.487,0.29164605
2227.416,0.28779155
2229.344,0.28401135
2231.273,0.280436265
2233.201,0.276883835
2235.13,0.27336305
2237.058,0.269794675
2238.987,0.266283765
2240.915,0.26266832
2242.844,0.25953334
2244.772,0.25627187
2246.701,0.25317371
2248.629,0.24959009
2250.558,0.246251305
2252.486,0.242966755
2254.415,0.23985571
2256.343,0.2365928
2258.272,0.23352672
2260.2,0.23031237
2262.129,0.227284205
2264.057,0.22405753
2265.986,0.2209264
2267.914,0.217776255
2269.843,0.214873795
2271.771,0.21170354
2273.7,0.20855702
2275.628,0.205409955
2277.557,0.20256579
2279.485,0.199624235
2281.414,0.19675069
2283.342,0.193555495
2285.271,0.190657735
2287.199,0.187672474
2289.128,0.185082441
2291.056,0.182386012
2292.985,0.1797231571
2294.913,0.177133635
2296.842,0.1749535725
2298.77,0.1727227155
2300.699,0.17033145
2302.627,0.16774018
2304.556,0.16549578
2306.484,0.16337504
2308.413,0.16154972
2310.341,0.1593762
2312.27,0.157638635
2314.198,0.155388205
2316.127,0.15307846
2318.055,0.15157136
2319.984,0.150638725
2321.912,0.1491413
2323.841,0.14786676
2325.769,0.1459856
2327.698,0.144522775
2329.626,0.14279683
2331.555,0.140909685
2333.483,0.138147085
2335.412,0.135834045
2337.34,0.13364168
2339.269,0.131932975
2341.197,0.12978922
2343.126,0.127927195
2345.054,0.124298435
2346.983,0.11806421
2348.911,0.11310629
2350.84,0.11279198
2352.768,0.11387482
2354.697,0.11534859
2356.625,0.1159822
2358.554,0.11589628
2360.482,0.113562505
2362.411,0.110824915
2364.339,0.10676344
2366.268,0.102203465
2368.196,0.09670938
2370.125,0.09198554
2372.053,0.08749846
2373.982,0.0831199
2375.91,0.07817065
2377.839,0.07344955
2379.767,0.06878815
2381.696,0.06432365
2383.624,0.0603321
2385.553,0.05707895
2387.481,0.05425885
2389.41,0.0519953
2391.338,0.0499063
2393.267,0.0479822
2395.195,0.04579205
2397.124,0.0435575
2399.052,0.041334
2400.981,0.03935345
2402.909,0.03708835
2404.838,0.03514245
2406.766,0.0334269
2408.695,0.0314755
2410.623,0.02934425
2412.552,0.0273797
2414.48,0.0254932
2416.409,0.02375905
2418.337,0.0216516
2420.266,0.0196505
2422.194,0.01789965
2424.123,0.01629885
2426.051,0.0145045
2427.98,0.0125718
2429.908,0.01050025
2431.837,0.00877325
2433.765,0.00710075
2435.694,0.00538575
2437.622,0.00361265
2439.551,0.0020199
2441.479,0.00021655
2443.408,-0.0013003
2445.336,-0.0028254
2447.265,-0.00439845
2449.193,-0.0058327
2451.122,-0.00718465
2453.05,-0.008603
2454.979,-0.00995995
2456.907,-0.01141585
2458.836,-0.01252655
2460.764,-0.0135372
2462.693,-0.01458735
2464.621,-0.0156755
2466.55,-0.01653365
2468.478,-0.01720985
2470.406,-0.01779405
2472.335,-0.0183072
2474.264,-0.01867665
2476.192,-0.0191958
2478.121,-0.01961515
2480.049,-0.01997665
2481.978,-0.02025875
2483.906,-0.0205932
2485.834,-0.0211859
2487.763,-0.02234635
2489.692,-0.0237057
2491.62,-0.02517975
2493.549,-0.0270873
2495.477,-0.029545
2497.406,-0.03187835
2499.334,-0.0343806
2501.262,-0.03700925
2503.191,-0.03981645
2505.12,-0.04243145
2507.048,-0.0451238
2508.977,-0.0475481
2510.905,-0.0499036
2512.833,-0.0521759
2514.762,-0.0544567
2516.69,-0.0565215
2518.619,-0.05859965
2520.548,-0.06048705
2522.476,-0.0625784
2524.405,-0.06436875
2526.333,-0.06575565
2528.261,-0.06733585
2530.19,-0.0692362
2532.119,-0.07085065
2534.047,-0.07238205
2535.976,-0.07379885
2537.904,-0.07535617
2539.833,-0.076789135
2541.761,-0.07812062
2543.689,-0.07936438
2545.618,-0.080620265
2547.547,-0.081634955
2549.475,-0.082632115
2551.404,-0.083638685
2553.332,-0.084904785
2555.26,-0.086149845
2557.189,-0.087353945
2559.117,-0.088438185
2561.046,-0.0896494
2562.975,-0.090889395
2564.903,-0.09216091
2566.832,-0.0933652
2568.76,-0.09481437
2570.688,-0.096251755
2572.617,-0.09759081
2574.545,-0.09881541
2576.474,-0.10008344
2578.403,-0.101205335
2580.331,-0.102505985
2582.26,-0.10397003
2584.188,-0.105496245
2586.116,-0.106837155
2588.045,-0.10829096
2589.973,-0.109638785
2591.902,-0.11086011
2593.831,-0.11236377
2595.759,-0.113661035
2597.688,-0.114719885
2599.616,-0.11590981
2601.544,-0.117079825
2603.473,-0.118365835
2605.401,-0.11944793
2607.33,-0.120650355
2609.259,-0.12175987
2611.187,-0.12288037
2613.115,-0.123899405
2615.044,-0.124857725
2616.972,-0.12562436
2618.901,-0.1264893
2620.829,-0.127490415
2622.758,-0.12856409
2624.687,-0.129604635
2626.615,-0.1304726
2628.543,-0.131335585
2630.472,-0.1322373
2632.4,-0.13313152
2634.329,-0.134235035
2636.258,-0.135086155
2638.186,-0.13594534
2640.115,-0.136935585
2642.043,-0.137870825
2643.971,-0.138894365
2645.9,-0.13999258
2647.828,-0.141084545
2649.757,-0.14224174
2651.686,-0.14349333
2653.614,-0.14480688
2655.542,-0.145986985
2657.471,-0.147339085
2659.399,-0.14865534
2661.328,-0.14983976
2663.256,-0.151080005
2665.185,-0.1525333
2667.114,-0.153937195
2669.042,-0.155358175
2670.97,-0.15683844
2672.899,-0.158441585
2674.827,-0.1598542
2676.756,-0.161364065
2678.684,-0.1628437725
2680.613,-0.1644217545
2682.542,-0.1659391355
2684.47,-0.1675862085
2686.398,-0.1692444485
2688.327,-0.170723106
2690.255,-0.17225334725
2692.184,-0.1739495965
2694.112,-0.175608129
2696.041,-0.1774409205
2697.969,-0.1790573495
2699.898,-0.1804919865
2701.826,-0.18201445
2703.755,-0.18350827
2705.683,-0.18504536
2707.612,-0.186684505
2709.54,-0.188282905
2711.469,-0.1898137
2713.397,-0.19127807
2715.326,-0.19258347
2717.254,-0.193885885
2719.183,-0.195195275
2721.111,-0.19645885
2723.04,-0.19778082
2724.969,-0.198837245
2726.897,-0.199920205
2728.825,-0.201032815
2730.754,-0.20203727
2732.682,-0.20300142
2734.611,-0.20396299
2736.539,-0.2049476
2738.468,-0.20579071
2740.396,-0.20657437
2742.325,-0.207480355
2744.253,-0.20842803
2746.182,-0.209380775
2748.11,-0.21018346
2750.039,-0.21081181
2751.967,-0.211615005
2753.896,-0.212491405
2755.824,-0.213216595
2757.753,-0.213921255
2759.681,-0.21457264
2761.61,-0.215361495
2763.538,-0.2160638
2765.467,-0.21661816
2767.395,-0.217389765
2769.324,-0.21810558
2771.252,-0.21875897
2773.181,-0.21954396
2775.109,-0.22029167
2777.038,-0.220972245
2778.966,-0.221522515
2780.895,-0.22212169
2782.823,-0.22277491
2784.752,-0.223521885
2786.68,-0.22405874
2788.609,-0.224566625
2790.537,-0.225261365
2792.466,-0.22605267
2794.394,-0.226675885
2796.323,-0.227249015
2798.251,-0.227761145
2800.18,-0.228274375
2802.108,-0.228981735
2804.037,-0.22982197
2805.965,-0.230396645
2807.894,-0.23086333
2809.822,-0.231385135
2811.751,-0.231934905
2813.679,-0.23247107
2815.608,-0.233209535
2817.536,-0.23404687
2819.465,-0.23480278
2821.393,-0.23550197
2823.322,-0.23603113
2825.25,-0.236550545
2827.179,-0.237223415
2829.107,-0.23807941
2831.036,-0.23891008
2832.964,-0.239517605
2834.893,-0.240208275
2836.821,-0.241200885
2838.75,-0.24193652
2840.678,-0.242499175
2842.607,-0.24327313
2844.535,-0.24405368
2846.464,-0.244709985
2848.392,-0.245255145
2850.321,-0.24594564
2852.249,-0.24670604
2854.178,-0.24727631
2856.106,-0.247887125
2858.035,-0.248635225
2859.963,-0.249444055
2861.892,-0.250229465
2863.82,-0.25080831
2865.749,-0.251286645
2867.677,-0.251945045
2869.606,-0.25262982
2871.534,-0.25329029
2873.463,-0.253974645
2875.391,-0.254723225
2877.32,-0.25535287
2879.248,-0.256252285
2881.177,-0.25711785
2883.105,-0.25767002
2885.034,-0.258288775
2886.962,-0.259105335
2888.891,-0.26001932
2890.819,-0.260821525
2892.748,-0.26159343
2894.676,-0.26206495
2896.605,-0.26269877
2898.533,-0.2636685
2900.462,-0.264588235
2902.39,-0.26527076
2904.319,-0.26593863
2906.247,-0.26652978
2908.176,-0.267141645
2910.104,-0.26788619
2912.033,-0.26848275
2913.961,-0.26888335
2915.89,-0.2691349
2917.818,-0.2696449
2919.747,-0.2702045
2921.675,-0.27082055
2923.604,-0.2714289
2925.532,-0.27189545
2927.461,-0.27199485
2929.389,-0.2723145
2931.318,-0.27298255
2933.246,-0.2734207
2935.175,-0.27370235
2937.103,-0.2741209
2939.032,-0.2744992
2940.96,-0.2748248
2942.889,-0.2750458
2944.817,-0.2753917
2946.746,-0.27576315
2948.674,-0.2759448
2950.603,-0.27615415
2952.531,-0.2765017
2954.46,-0.2768872
2956.388,-0.2772111
2958.317,-0.27743595
2960.245,-0.27778925
2962.174,-0.2779788
2964.102,-0.2781699
2966.031,-0.2784802
2967.959,-0.2790015
2969.888,-0.2795101
2971.816,-0.28015765
2973.745,-0.28070135
2975.673,-0.2813926
2977.602,-0.28204585
2979.53,-0.2824897
2981.459,-0.2832384
2983.387,-0.2841977
2985.316,-0.28497895
2987.244,-0.28591725
2989.173,-0.2869265
2991.101,-0.28794375
2993.03,-0.2887842
2994.958,-0.2898359
2996.887,-0.29103355
2998.815,-0.2920565
3000.744,-0.29295
3002.672,-0.29386715
3004.601,-0.29492755
3006.529,-0.29604455
3008.458,-0.29704855
3010.386,-0.29796815
3012.315,-0.29900675
3014.243,-0.30031315
3016.172,-0.3015465
3018.1,-0.3029277
3020.029,-0.3039092
3021.957,-0.3046282
3023.886,-0.305456
3025.814,-0.3064878
3027.743,-0.3073107
3029.671,-0.30799725
3031.6,-0.30878415
3033.528,-0.30978135
3035.457,-0.3104712
3037.385,-0.31150365
3039.314,-0.3125325
3041.242,-0.31314015
3043.171,-0.31358195
3045.099,-0.31426975
3047.028,-0.31493945
3048.956,-0.3154476
3050.885,-0.31606505
3052.813,-0.316825
3054.742,-0.3172366
3056.67,-0.3177148
3058.599,-0.318518
3060.527,-0.3192137
3062.456,-0.31972205
3064.384,-0.32013145
3066.313,-0.32055565
3068.241,-0.3212625
3070.17,-0.3218534
3072.098,-0.322355
3074.027,-0.32276015
3075.955,-0.32320485
3077.884,-0.32349985
3079.812,-0.3237897
3081.741,-0.32413935
3083.669,-0.32458935
3085.598,-0.32521985
3087.526,-0.3258639
3089.455,-0.3262302
3091.383,-0.32674365
3093.312,-0.32702975
3095.24,-0.32736585
3097.169,-0.3278438
3099.097,-0.32831435
3101.026,-0.3286685
3102.954,-0.32916105
3104.883,-0.32956755
3106.811,-0.3300083
3108.74,-0.33018415
3110.668,-0.3304374
3112.597,-0.3307428
3114.525,-0.3310356
3116.454,-0.3312647
3118.382,-0.3316937
3120.311,-0.3319851
3122.239,-0.33235355
3124.167,-0.3326538
3126.096,-0.33297975
3128.025,-0.33334815
3129.953,-0.3338832
3131.882,-0.3341893
3133.81,-0.3345598
3135.739,-0.3348711
3137.667,-0.33521085
3139.595,-0.3354939
3141.524,-0.33587075
3143.453,-0.33615755
3145.381,-0.3366773
3147.31,-0.33674155
3149.238,-0.3368447
3151.167,-0.33698525
3153.095,-0.3372045
3155.023,-0.3375066
3156.952,-0.33789855
3158.881,-0.3381669
3160.809,-0.33839535
3162.738,-0.3384544
3164.666,-0.3387189
3166.594,-0.339042
3168.523,-0.3392537
3170.452,-0.3395243
3172.38,-0.3399867
3174.309,-0.34039195
3176.237,-0.34057215
3178.166,-0.3404807
3180.094,-0.34066995
3182.022,-0.34080895
3183.951,-0.341118
3185.88,-0.3414868
3187.808,-0.3418096
3189.737,-0.34189455
3191.665,-0.34218265
3193.594,-0.3424009
3195.522,-0.3425733
3197.45,-0.3427167
3199.379,-0.3429771
3201.308,-0.3431081
3203.236,-0.343492
3205.165,-0.34365585
3207.093,-0.34373505
3209.021,-0.3438132
3210.95,-0.34415105
3212.878,-0.34416375
3214.807,-0.3442933
3216.736,-0.3446383
3218.664,-0.34485825
3220.593,-0.34479635
3222.521,-0.34501365
3224.449,-0.3453442
3226.378,-0.34568115
3228.306,-0.3455826
3230.235,-0.34549255
3232.164,-0.34561335
3234.092,-0.3461457
3236.021,-0.3464947
3237.949,-0.3466291
3239.877,-0.34656695
3241.806,-0.34680505
3243.734,-0.34700755
3245.663,-0.34714415
3247.592,-0.34745565
3249.52,-0.3478028
3251.448,-0.3478648
3253.377,-0.3478214
3255.305,-0.34786615
3257.234,-0.3481034
3259.162,-0.3482736
3261.091,-0.3486374
3263.02,-0.34855665
3264.948,-0.34853235
3266.876,-0.3486263
3268.805,-0.34886295
3270.733,-0.349003
3272.662,-0.34927885
3274.591,-0.34920715
3276.519,-0.34924105
3278.448,-0.34941395
3280.376,-0.34977195
3282.304,-0.3498932
3284.233,-0.3501458
3286.161,-0.35029495
3288.09,-0.3502243
3290.019,-0.35025345
3291.947,-0.35047785
3293.875,-0.3503476
3295.804,-0.350293
3297.732,-0.35055665
3299.661,-0.3506517
3301.589,-0.35027085
3303.518,-0.3503979
3305.447,-0.35039515
3307.375,-0.35004215
3309.303,-0.34965365
3311.232,-0.3494383
3313.16,-0.3491989
3315.089,-0.34901635
3317.017,-0.34856365
3318.946,-0.34821305
3320.875,-0.34757355
3322.803,-0.3470427
3324.731,-0.3463728
3326.66,-0.3459384
3328.588,-0.3457465
3330.517,-0.3458689
3332.445,-0.3459122
3334.374,-0.34607845
3336.302,-0.3462486
3338.231,-0.3466456
3340.159,-0.3470203
3342.088,-0.3473659
3344.016,-0.3472373
3345.945,-0.34675245
3347.873,-0.34591585
3349.802,-0.345056
3351.73,-0.3440725
3353.659,-0.34270855
3355.587,-0.34101585
3357.516,-0.3405308
3359.444,-0.3408409
3361.373,-0.34156865
3363.302,-0.3429486
3365.23,-0.3447649
3367.158,-0.346644
3369.087,-0.34851
3371.015,-0.35006195
3372.944,-0.3516816
3374.872,-0.3526857
3376.801,-0.3536554
3378.729,-0.35433985
3380.658,-0.35508115
3382.586,-0.3556281
3384.515,-0.35602545
3386.443,-0.3563638
3388.372,-0.35685705
3390.3,-0.3569426
3392.229,-0.356781
3394.157,-0.35682675
3396.086,-0.3570541
3398.014,-0.356929
3399.943,-0.35694525
3401.871,-0.35680585
3403.8,-0.35716275
3405.728,-0.3572972
3407.657,-0.35730195
3409.585,-0.357241
3411.514,-0.35742995
3413.442,-0.35749535
3415.371,-0.35760345
3417.299,-0.35748935
3419.228,-0.3570635
3421.156,-0.35651855
3423.085,-0.35684225
3425.013,-0.3570705
3426.942,-0.3573337
3428.87,-0.35718535
3430.799,-0.35705325
3432.727,-0.35706745
3434.656,-0.3572784
3436.584,-0.356972
3438.513,-0.356776
3440.441,-0.3563137
3442.37,-0.3561157
3444.298,-0.35619585
3446.227,-0.35579195
3448.155,-0.355414
3450.084,-0.3558004
3452.012,-0.3555504
3453.941,-0.35551285
3455.869,-0.3553009
3457.798,-0.3551077
3459.726,-0.3545835
3461.655,-0.35422325
3463.583,-0.35368945
3465.512,-0.35309885
3467.44,-0.3520185
3469.369,-0.35158615
3471.297,-0.3509125
3473.226,-0.35013405
3475.154,-0.34918875
3477.083,-0.3486002
3479.011,-0.34757625
3480.94,-0.34661575
3482.868,-0.34598565
3484.797,-0.34598255
3486.725,-0.3456669
3488.654,-0.34549235
3490.582,-0.3456494
3492.511,-0.3460936
3494.439,-0.34579575
3496.368,-0.34511545
3498.296,-0.3447897
3500.225,-0.3443965
3502.153,-0.3428083
3504.082,-0.34213235
3506.01,-0.34190975
3507.939,-0.34075995
3509.867,-0.3387308
3511.796,-0.3378806
3513.724,-0.336488
3515.653,-0.33450285
3517.581,-0.3322436
3519.51,-0.33008235
3521.438,-0.3279536
3523.367,-0.3262876
3525.295,-0.32591235
3527.224,-0.32659245
3529.152,-0.32805265
3531.081,-0.33033645
3533.009,-0.33225975
3534.938,-0.3333889
3536.866,-0.3331333
3538.795,-0.3327952
3540.723,-0.3316812
3542.652,-0.330603
3544.58,-0.3298879
3546.509,-0.33116895
3548.437,-0.33337765
3550.366,-0.33507185
3552.294,-0.3348128
3554.223,-0.33420885
3556.151,-0.3318318
3558.08,-0.3279234
3560.008,-0.32336675
3561.937,-0.32031715
3563.865,-0.319424
3565.794,-0.31867015
3567.722,-0.31556375
3569.651,-0.312954
3571.579,-0.31084745
3573.508,-0.3119456
3575.436,-0.3186954
3577.365,-0.3288118
3579.293,-0.33822665
3581.222,-0.346257
3583.15,-0.35237195
3585.079,-0.3560374
3587.007,-0.35744885
3588.936,-0.35943995
3590.864,-0.36130455
3592.793,-0.36132055
3594.721,-0.3598599
3596.65,-0.35981295
3598.578,-0.36048245
3600.507,-0.36108725
3602.435,-0.36228085
3604.364,-0.36393635
3606.292,-0.363719
3608.221,-0.36306585
3610.149,-0.3645506
3612.078,-0.36593615
3614.006,-0.36534535
3615.935,-0.3664407
3617.863,-0.36643245
3619.792,-0.3654573
3621.72,-0.36622455
3623.649,-0.36782765
3625.577,-0.3678834
3627.506,-0.36706175
3629.434,-0.36481075
3631.363,-0.36721705
3633.291,-0.36896335
3635.22,-0.3698127
3637.148,-0.37036505
3639.077,-0.37048635
3641.005,-0.37081455
3642.934,-0.3710116
3644.862,-0.37110385
3646.791,-0.3690739
3648.719,-0.36632875
3650.648,-0.36667455
3652.576,-0.36977965
3654.505,-0.37203845
3656.433,-0.371217
3658.362,-0.3717053
3660.29,-0.37232845
3662.219,-0.3728323
3664.147,-0.3730356
3666.076,-0.37295385
3668.004,-0.37209865
3669.933,-0.36969365
3671.861,-0.37003165
3673.79,-0.371439
3675.718,-0.3679315
3677.647,-0.3695796
3679.575,-0.371609
3681.504,-0.37298605
3683.432,-0.37367065
3685.361,-0.3736027
3687.289,-0.3727967
3689.218,-0.36980955
3691.146,-0.36969585
3693.075,-0.37203
3695.003,-0.37344225
3696.932,-0.37337005
3698.86,-0.3737426
3700.789,-0.37321195
3702.717,-0.37196555
3704.646,-0.373342
3706.574,-0.37382365
3708.503,-0.3730659
3710.431,-0.3703718
3712.36,-0.36976275
3714.288,-0.3724058
3716.217,-0.37424195
3718.145,-0.37360865
3720.074,-0.3729784
3722.002,-0.372073
3723.931,-0.37136355
3725.859,-0.3710945
3727.788,-0.37200195
3729.716,-0.37343195
3731.645,-0.37287955
3733.573,-0.3710999
3735.502,-0.36907255
3737.43,-0.36991565
3739.359,-0.37273495
3741.287,-0.3736908
3743.216,-0.3743667
3745.144,-0.3704456
3747.073,-0.37138985
3749.001,-0.3713801
3750.93,-0.3687785
3752.858,-0.36981455
3754.787,-0.3723446
3756.715,-0.372831
3758.644,-0.37196665
3760.572,-0.372037
3762.5,-0.3737757
3764.429,-0.37378425
3766.358,-0.37268515
3768.286,-0.3730958
3770.215,-0.37219125
3772.143,-0.3732537
3774.072,-0.37474055
3776.0,-0.3745516
3777.928,-0.37363515
3779.857,-0.3726127
3781.786,-0.37379055
3783.714,-0.37382765
3785.643,-0.37331915
3787.571,-0.37415545
3789.5,-0.374591
3791.428,-0.37438675
3793.356,-0.3743398
3795.285,-0.3737483
3797.214,-0.37191275
3799.142,-0.3722647
3801.071,-0.37072755
3802.999,-0.36970145
3804.927,-0.37278965
3806.856,-0.3725227
3808.785,-0.37295085
3810.713,-0.37435675
3812.642,-0.3747638
3814.57,-0.37418835
3816.499,-0.37142425
3818.427,-0.37168925
3820.355,-0.3706068
3822.284,-0.3694679
3824.213,-0.37289415
3826.141,-0.373001
3828.07,-0.37277965
3829.998,-0.3735712
3831.927,-0.3726413
3833.855,-0.3723553
3835.783,-0.37233665
3837.712,-0.37144225
3839.641,-0.37054625
3841.569,-0.3713748
3843.498,-0.37194685
3845.426,-0.37284335
3847.354,-0.3744317
3849.283,-0.37457095
3851.211,-0.37368355
3853.14,-0.36979645
3855.069,-0.3691567
3856.997,-0.3714435
3858.926,-0.37368295
3860.854,-0.37384325
3862.782,-0.3723481
3864.711,-0.3715904
3866.639,-0.37321155
3868.568,-0.37368105
3870.497,-0.3706726
3872.425,-0.3717015
3874.354,-0.3717668
3876.282,-0.3736663
3878.21,-0.3751037
3880.139,-0.37307345
3882.067,-0.3726233
3883.996,-0.37365475
3885.925,-0.3728669
3887.853,-0.3740071
3889.781,-0.37453155
3891.71,-0.37224835
3893.638,-0.373125
3895.567,-0.37485125
3897.495,-0.37500705
3899.424,-0.37304395
3901.353,-0.37222265
3903.281,-0.3711856
3905.209,-0.37084035
3907.138,-0.37318995
3909.066,-0.37516325
3910.995,-0.37534925
3912.924,-0.37532225
3914.852,-0.37509715
3916.781,-0.3736233
3918.709,-0.3731804
3920.637,-0.37394145
3922.566,-0.37442155
3924.494,-0.3736705
3926.423,-0.37405855
3928.352,-0.3749354
3930.28,-0.37434935
3932.208,-0.37388175
3934.137,-0.373974
3936.065,-0.375232
3937.994,-0.37528835
3939.922,-0.375237
3941.851,-0.37443295
3943.78,-0.37392065
3945.708,-0.37457535
3947.636,-0.3744557
3949.565,-0.3738557
3951.493,-0.37442905
3953.422,-0.37485905
3955.35,-0.3752534
3957.279,-0.37545685
3959.208,-0.3754232
3961.136,-0.37483005
3963.064,-0.37482995
3964.993,-0.3749488
3966.921,-0.37507145
3968.85,-0.3749898
3970.778,-0.37505585
3972.707,-0.3747478
3974.635,-0.37470905
3976.564,-0.3748688
3978.492,-0.3751646
3980.421,-0.3751303
3982.349,-0.3750381
3984.278,-0.3749913
3986.206,-0.3753702
3988.135,-0.37546825
3990.063,-0.3752452
3991.992,-0.37510825
3993.92,-0.3751163
3995.849,-0.37463735
3997.777,-0.3749949
3999.706,-0.3751675
4001.634,-0.37499025
4003.563,-0.3749808
4005.491,-0.37535345
4007.42,-0.37493555
4009.348,-0.3746415
4011.277,-0.37472725
4013.205,-0.37523435
4015.134,-0.3752314
4017.063,-0.37498235
4018.991,-0.3748872
4020.919,-0.37483
4022.848,-0.37441575
4024.776,-0.3747462
4026.705,-0.3748487
4028.633,-0.374799
4030.562,-0.3745048
4032.49,-0.37425355
4034.419,-0.3742666
4036.347,-0.3745942
4038.276,-0.37463675
4040.204,-0.3748429
4042.133,-0.37468945
4044.061,-0.37450525
4045.99,-0.37449935
4047.918,-0.3747451
4049.847,-0.3745749
4051.775,-0.37456165
4053.704,-0.3745309
4055.632,-0.37474445
4057.561,-0.3747274
4059.489,-0.37451225
4061.418,-0.374259
4063.346,-0.3745248
4065.275,-0.3744603
4067.203,-0.37448765
4069.132,-0.37477455
4071.06,-0.37507015
4072.989,-0.37478025
4074.917,-0.37467945
4076.846,-0.37468685
4078.774,-0.37478765
4080.703,-0.3745189
4082.631,-0.37471245
4084.56,-0.37504995
4086.488,-0.37495055
4088.417,-0.3747205
4090.345,-0.3747171
4092.274,-0.37430865
4094.202,-0.3744078
4096.131,-0.37460335
4098.059,-0.37477155
4099.988,-0.3748324
4101.917,-0.3747844
4103.845,-0.3746295
4105.773,-0.37473535
4107.702,-0.3748572
4109.63,-0.37505475
4111.559,-0.3747504
4113.487,-0.37470015
4115.416,-0.37467345
4117.344,-0.37465695
4119.273,-0.3746019
4121.201,-0.3747627
4123.13,-0.3742809
4125.058,-0.37415415
4126.987,-0.3743602
4128.916,-0.37468615
4130.844,-0.37453675
4132.772,-0.3746391
4134.701,-0.3744742
4136.629,-0.3744556
4138.558,-0.37429095
4140.486,-0.3743962
4142.415,-0.3740051
4144.343,-0.37392
4146.272,-0.37399935
4148.2,-0.3740946
4150.129,-0.37375955
4152.057,-0.3736205
4153.986,-0.3736706
4155.914,-0.37379205
4157.843,-0.373657
4159.771,-0.3737531
4161.7,-0.3739258
4163.628,-0.37374375
4165.557,-0.3734287
4167.485,-0.37340795
4169.414,-0.373297
4171.342,-0.3734294
4173.271,-0.37366635
4175.199,-0.3736732
4177.128,-0.37342775
4179.056,-0.3736499
4180.985,-0.3736102
4182.913,-0.3734473
4184.842,-0.37327135
4186.77,-0.37316085
4188.699,-0.3730581
4190.627,-0.3733687
4192.556,-0.3732664
4194.484,-0.37297935
4196.413,-0.3726263
4198.341,-0.3730767
4200.27,-0.3732337
4202.198,-0.3731857
4204.127,-0.3730152
4206.055,-0.3730099
4207.984,-0.3727524
4209.912,-0.37287765
4211.841,-0.37309375
4213.769,-0.373187
4215.698,-0.3729426
4217.626,-0.3731228
4219.555,-0.3732229
4221.483,-0.37315005
4223.412,-0.37302465
4225.34,-0.37322185
4227.269,-0.3728259
4229.197,-0.3725135
4231.125,-0.37243875
4233.054,-0.3725015
4234.983,-0.37233505
4236.911,-0.37254695
4238.84,-0.37244675
4240.768,-0.37232375
4242.697,-0.3725692
4244.625,-0.3731842
4246.554,-0.37298715
4248.482,-0.3726223
4250.411,-0.372514
4252.339,-0.37245075
4254.268,-0.3723472
4256.196,-0.37269895
4258.125,-0.37289255
4260.053,-0.37291595
4261.982,-0.3725782
4263.91,-0.37266275
4265.839,-0.37284765
4267.767,-0.37325905
4269.696,-0.3729282
4271.624,-0.37273815
4273.553,-0.3727063
4275.481,-0.37266895
4277.41,-0.3724406
4279.338,-0.3726568
4281.267,-0.3728546
4283.195,-0.37284575
4285.124,-0.37251075
4287.052,-0.37288535
4288.98,-0.37301255
4290.909,-0.3729168
4292.838,-0.3728479
4294.766,-0.37280585
4296.695,-0.372666
4298.623,-0.3729785
4300.552,-0.37309995
4302.48,-0.3731199
4304.409,-0.37268145
4306.337,-0.3726857
4308.266,-0.3726526
4310.194,-0.3724004
4312.123,-0.3718844
4314.051,-0.3720962
4315.979,-0.372259
4317.908,-0.3725281
4319.836,-0.3726483
4321.765,-0.372612
4323.694,-0.3724554
4325.622,-0.37273765
4327.551,-0.37263885
4329.479,-0.37280925
4331.408,-0.37303015
4333.336,-0.37257895
4335.265,-0.37218905
4337.193,-0.3719125
4339.122,-0.37209345
4341.05,-0.37233405
4342.979,-0.3718354
4344.907,-0.37175135
4346.835,-0.3715145
4348.764,-0.3717075
4350.693,-0.3721355
4352.621,-0.37237465
4354.55,-0.37205625
4356.478,-0.3718213
4358.407,-0.37188775
4360.335,-0.37222615
4362.264,-0.37201375
4364.192,-0.37198875
4366.121,-0.3720385
4368.049,-0.3721847
4369.978,-0.37190595
4371.906,-0.37211225
4373.834,-0.37193735
4375.763,-0.3716742
4377.691,-0.3717069
4379.62,-0.3720613
4381.549,-0.37193095
4383.477,-0.3716967
4385.406,-0.3713091
4387.334,-0.37156445
4389.263,-0.37147705
4391.191,-0.3714754
4393.12,-0.3712201
4395.048,-0.371194
4396.977,-0.3713828
4398.905,-0.37139085
4400.833,-0.3711054
4402.762,-0.37138195
4404.69,-0.371156
4406.619,-0.3708446
4408.547,-0.3707725
4410.476,-0.3710664
4412.405,-0.3709652
4414.333,-0.3712432
4416.262,-0.3711245
4418.19,-0.37116
4420.119,-0.37091445
4422.047,-0.37092455
4423.976,-0.3711219
4425.904,-0.371278
4427.833,-0.37077635
4429.761,-0.3707671
4431.689,-0.37116015
4433.618,-0.37115425
4435.546,-0.37083875
4437.475,-0.37098765
4439.403,-0.37136865
4441.332,-0.3716166
4443.261,-0.3714917
4445.189,-0.3712632
4447.118,-0.37105155
4449.046,-0.3711142
4450.975,-0.37134755
4452.903,-0.3719684
4454.832,-0.3714526
4456.76,-0.37107865
4458.688,-0.37098315
4460.617,-0.37099975
4462.545,-0.3710168
4464.474,-0.3709961
4466.402,-0.3708014
4468.331,-0.3711076
4470.26,-0.37122825
4472.188,-0.37120095
4474.117,-0.37101675
4476.045,-0.37111195
4477.974,-0.37140855
4479.902,-0.3716293
4481.831,-0.3714691
4483.759,-0.37102425
4485.688,-0.37058335
4487.616,-0.37107895
4489.544,-0.3715967
4491.473,-0.37173765
4493.401,-0.3713556
4495.33,-0.3710361
4497.258,-0.3709734
4499.187,-0.3712858
4501.116,-0.371054
4503.044,-0.3712106
4504.973,-0.37125435
4506.901,-0.37158555
4508.83,-0.37161815
4510.758,-0.37158715
4512.687,-0.3711292
4514.615,-0.37080925
4516.543,-0.37083945
4518.472,-0.37111185
4520.4,-0.3714508
4522.329,-0.3715141
4524.257,-0.3710145
4526.186,-0.3709455
4528.114,-0.37126765
4530.043,-0.37169
4531.972,-0.37117685
4533.9,-0.37093075
4535.829,-0.37054355
4537.757,-0.3705791
4539.686,-0.370357
4541.614,-0.3699405
4543.542,-0.36967185
4545.471,-0.3697796
4547.399,-0.36990255
4549.328,-0.3699801
4551.256,-0.3695764
4553.185,-0.36980305
4555.113,-0.36999595
4557.042,-0.3705716
4558.971,-0.3705862
4560.899,-0.3703057
4562.828,-0.37004025
4564.756,-0.3698591
4566.685,-0.3695441
4568.613,-0.36946835
4570.542,-0.3693625
4572.47,-0.36947735
4574.398,-0.3689716
4576.327,-0.3690866
4578.255,-0.3692596
4580.184,-0.3693063
4582.112,-0.3693899
4584.041,-0.3695242
4585.969,-0.36940815
4587.898,-0.36933405
4589.827,-0.36855545
4591.755,-0.36861755
4593.684,-0.36874915
4595.612,-0.3686218
4597.541,-0.3685606
4599.469,-0.3686702
4601.397,-0.3688039
4603.326,-0.3691841
4605.254,-0.36891685
4607.183,-0.3685406
4609.111,-0.36831915
4611.04,-0.3679256
4612.968,-0.36788275
4614.897,-0.3684936
4616.825,-0.36869495
4618.754,-0.3683531
4620.683,-0.3675112
4622.611,-0.3675231
4624.54,-0.36775685
4626.468,-0.36803485
4628.396,-0.36788785
4630.325,-0.36820295
4632.253,-0.3681376
4634.182,-0.36825605
4636.11,-0.3679218
4638.039,-0.368033
4639.967,-0.368048
4641.896,-0.3676284
4643.824,-0.36756195
4645.753,-0.3683483
4647.682,-0.36833775
4649.61,-0.368503
4651.539,-0.36837255
4653.467,-0.36828335
4655.396,-0.3683036
4657.324,-0.36839075
4659.252,-0.3683143
4661.181,-0.36821585
4663.109,-0.3678863
4665.038,-0.3677666
4666.966,-0.36753465
4668.895,-0.36771995
4670.823,-0.3679527
4672.752,-0.3679325
4674.68,-0.3677276
4676.609,-0.3679436
4678.538,-0.36765985
4680.466,-0.36730925
4682.395,-0.3671841
4684.323,-0.36750595
4686.251,-0.36729395
4688.18,-0.36704765
4690.108,-0.3669672
4692.037,-0.3669751
4693.965,-0.3669789
4695.894,-0.3670742
4697.822,-0.36704375
4699.751,-0.3674924
4701.679,-0.3676856
4703.608,-0.36783865
4705.536,-0.36730495
4707.465,-0.3673033
4709.394,-0.3673909
4711.322,-0.36741765
4713.25,-0.36721635
4715.179,-0.3671357
4717.107,-0.3668832
4719.036,-0.3669838
4720.964,-0.36711315
4722.893,-0.36722865
4724.821,-0.36716385
4726.75,-0.36744545
4728.678,-0.3670299
4730.607,-0.36662065
4732.535,-0.36669815
4734.464,-0.3670569
4736.392,-0.3671921
4738.321,-0.3670397
4740.25,-0.36666305
4742.178,-0.36647915
4744.106,-0.36617935
4746.035,-0.36620695
4747.963,-0.36634265
4749.892,-0.3669552
4751.82,-0.3670145
4753.749,-0.3668564
4755.677,-0.3665723
4757.606,-0.36639455
4759.534,-0.36605795
4761.463,-0.3661098
4763.391,-0.36578365
4765.32,-0.36529335
4767.249,-0.3651517
4769.177,-0.36548055
4771.105,-0.36551935
4773.034,-0.3657357
4774.962,-0.36525245
4776.891,-0.3652361
4778.819,-0.3657523
4780.748,-0.365614
4782.676,-0.3649456
4784.605,-0.36499085
4786.533,-0.36523595
4788.462,-0.36503365
4790.39,-0.36462685
4792.319,-0.3651148
4794.247,-0.36511005
4796.176,-0.3646868
4798.104,-0.364309
4800.033,-0.36450755
4801.961,-0.36475075
4803.89,-0.36501905
4805.818,-0.3648535
4807.747,-0.36461165
4809.675,-0.3648113
4811.604,-0.36510105
4813.532,-0.364684
4815.461,-0.36454095
4817.389,-0.36455405
4819.318,-0.3645033
4821.246,-0.3643915
4823.175,-0.36455
4825.103,-0.36485515
4827.032,-0.36511725
4828.96,-0.3645446
4830.889,-0.36457775
4832.817,-0.3645028
4834.746,-0.36440415
4836.674,-0.3646451
4838.603,-0.3648351
4840.531,-0.3647806
4842.46,-0.3646476
4844.388,-0.3644681
4846.317,-0.3644284
4848.245,-0.3645067
4850.174,-0.36482765
4852.102,-0.36498925
4854.031,-0.3653321
4855.959,-0.36480255
4857.888,-0.36434725
4859.816,-0.36430995
4861.745,-0.36447055
4863.673,-0.36459395
4865.602,-0.36444965
4867.53,-0.3639748
4869.458,-0.36407495
4871.387,-0.3642268
4873.316,-0.3644697
4875.244,-0.36488955
4877.173,-0.3646624
4879.101,-0.3643345
4881.03,-0.36475555
4882.958,-0.364737
4884.887,-0.36451965
4886.815,-0.3643404
4888.744,-0.36441795
4890.672,-0.3643199
4892.601,-0.36400405
4894.529,-0.3637791
4896.458,-0.3643149
4898.386,-0.36440095
4900.315,-0.36422755
4902.243,-0.3644321
4904.172,-0.36484245
4906.1,-0.3644579
4908.029,-0.3642965
4909.957,-0.36389455
4911.886,-0.3638636
4913.814,-0.3643542
4915.743,-0.3642776
4917.671,-0.36387375
4919.6,-0.36362525
4921.528,-0.3632885
4923.457,-0.36349545
4925.385,-0.36374345
4927.313,-0.3639842
4929.242,-0.36399535
4931.171,-0.36388405
4933.099,-0.3639005
4935.028,-0.36395505
4936.956,-0.3637911
4938.885,-0.3636945
4940.813,-0.363385
4942.742,-0.3634445
4944.67,-0.3631034
4946.599,-0.362974
4948.527,-0.36254145
4950.456,-0.3622135
4952.384,-0.36244965
4954.313,-0.3630785
4956.241,-0.363625
4958.169,-0.3634787
4960.098,-0.3629849
4962.027,-0.36287715
4963.955,-0.36259985
4965.884,-0.3624862
4967.812,-0.3626735
4969.741,-0.36293805
4971.669,-0.36284165
4973.598,-0.36279985
4975.526,-0.3627133
4977.455,-0.36247235
4979.383,-0.3620139
4981.312,-0.36179785
4983.24,-0.3620052
4985.168,-0.3625141
4987.097,-0.362451
4989.025,-0.3622585
4990.954,-0.36231395
4992.883,-0.36258975
4994.811,-0.3626337
4996.74,-0.3627762
4998.668,-0.3626503
5000.597,-0.36228575
5002.525,-0.36191925
5004.454,-0.36198655
5006.382,-0.3619606
5008.311,-0.36244245
5010.239,-0.3624528
5012.167,-0.36209685
5014.096,-0.3616183
5016.024,-0.36201035
5017.953,-0.36222855
5019.882,-0.3623338
5021.81,-0.361791
5023.739,-0.3610653
5025.667,-0.361311
5027.596,-0.3619219
5029.524,-0.3618445
5031.453,-0.36166175
5033.381,-0.3615635
5035.31,-0.3620216
5037.238,-0.36224485
5039.167,-0.36219145
5041.095,-0.3618931
5043.023,-0.36231645
5044.952,-0.36240935
5046.88,-0.36184615
5048.809,-0.36136115
5050.738,-0.3617168
5052.666,-0.3622671
5054.595,-0.3624965
5056.523,-0.36197655
5058.452,-0.3615629
5060.38,-0.3616777
5062.309,-0.36209905
5064.237,-0.3620504
5066.166,-0.3614901
5068.094,-0.3611832
5070.022,-0.36171525
5071.951,-0.36196885
5073.879,-0.3621491
5075.808,-0.36194745
5077.736,-0.3617596
5079.665,-0.3613284
5081.594,-0.36154535
5083.522,-0.3623211
5085.451,-0.3627626
5087.379,-0.36217115
5089.308,-0.36160385
5091.236,-0.36157655
5093.165,-0.36173615
5095.093,-0.36164615
5097.021,-0.36190195
5098.95,-0.3618184
5100.878,-0.3619515
5102.807,-0.3618881
5104.735,-0.36218135
5106.664,-0.36210295
5108.593,-0.36169595
5110.521,-0.36127685
5112.45,-0.36186175
5114.378,-0.3614968
5116.307,-0.3607686
5118.235,-0.36081945
5120.164,-0.36132345
5122.092,-0.3615467
5124.021,-0.3618302
5125.949,-0.36184395
5127.877,-0.3615909
5129.806,-0.3615227
5131.734,-0.361117
5133.663,-0.3603076
5135.591,-0.3605617
5137.52,-0.3611335
5139.449,-0.3620214
5141.377,-0.36177575
5143.306,-0.3612963
5145.234,-0.36123795
5147.163,-0.3612091
5149.091,-0.36059675
5151.02,-0.36057415
5152.948,-0.3608541
5154.876,-0.36092855
5156.805,-0.361024
5158.733,-0.36136375
5160.662,-0.36088085
5162.59,-0.36067435
5164.519,-0.36035995
5166.447,-0.36057155
5168.376,-0.36054695
5170.305,-0.3603412
5172.233,-0.35996545
5174.162,-0.35999475
5176.09,-0.3599338
5178.019,-0.36033365
5179.947,-0.3598498
5181.875,-0.35977095
5183.804,-0.35980785
5185.732,-0.35934595
5187.661,-0.3596765
5189.589,-0.35999685
5191.518,-0.36014805
5193.446,-0.35969665
5195.375,-0.35876865
5197.304,-0.35872205
5199.232,-0.35992845
5201.161,-0.3608172
5203.089,-0.36042765
5205.018,-0.3589315
5206.946,-0.35693885
5208.875,-0.3579556
5210.803,-0.35939605
5212.731,-0.3606451
5214.66,-0.36040805
5216.588,-0.3598069
5218.517,-0.3598195
5220.445,-0.3605501
5222.374,-0.36059445
5224.302,-0.35942395
5226.231,-0.35822265
5228.16,-0.35882665
5230.088,-0.35881195
5232.017,-0.3587184
5233.945,-0.35858405
5235.874,-0.35894835
5237.802,-0.359334
5239.73,-0.3600851
5241.659,-0.3606174
5243.587,-0.3591826
5245.516,-0.35813755
5247.444,-0.3581164
5249.373,-0.3583107
5251.301,-0.35959035
5253.23,-0.3583269
5255.158,-0.35759205
5257.087,-0.3588629
5259.016,-0.35948505
5260.944,-0.35861545
5262.873,-0.35757085
5264.801,-0.35720095
5266.729,-0.3584352
5268.658,-0.35833165
5270.586,-0.3583478
5272.515,-0.35861385
5274.443,-0.3594311
5276.372,-0.3596555
5278.3,-0.35930505
5280.229,-0.3582825
5282.157,-0.358491
5284.086,-0.35830065
5286.014,-0.3582424
5287.943,-0.3586669
5289.872,-0.3582369
5291.8,-0.35842515
5293.729,-0.35980045
5295.657,-0.35993075
5297.585,-0.3591725
5299.514,-0.3583149
5301.442,-0.359001
5303.371,-0.35909605
5305.299,-0.3588938
5307.228,-0.35764225
5309.156,-0.35815885
5311.085,-0.35930865
5313.013,-0.3596236
5314.942,-0.3587168
5316.871,-0.35865365
5318.799,-0.3589051
5320.728,-0.3588762
5322.656,-0.3585559
5324.584,-0.35838005
5326.513,-0.3572242
5328.441,-0.35734455
5330.37,-0.3580728
5332.298,-0.35775155
5334.227,-0.3577368
5336.155,-0.35692305
5338.084,-0.3554671
5340.012,-0.3564469
5341.941,-0.3573221
5343.869,-0.35564445
5345.798,-0.3555832
5347.727,-0.35676595
5349.655,-0.35619325
5351.583,-0.35616485
5353.512,-0.3549455
5355.44,-0.3561959
5357.369,-0.35769965
5359.297,-0.35836905
5361.226,-0.3577205
5363.154,-0.357253
5365.083,-0.357448
5367.011,-0.3581969
5368.94,-0.3582813
5370.868,-0.35768145
5372.797,-0.356503
5374.725,-0.3557632
5376.654,-0.35445905
5378.583,-0.3558655
5380.511,-0.35715025
5382.439,-0.357462
5384.368,-0.356376
5386.296,-0.35537765
5388.225,-0.3566679
5390.153,-0.35762575
5392.082,-0.35696465
5394.01,-0.3555194
5395.939,-0.3550371
5397.867,-0.3564872
5399.796,-0.35761465
5401.724,-0.3573608
5403.653,-0.3565753
5405.582,-0.35635245
5407.51,-0.35599535
5409.438,-0.35449015
5411.367,-0.35349795
5413.295,-0.3536959
5415.224,-0.3546614
5417.152,-0.35649715
5419.081,-0.35675765
5421.009,-0.35692885
5422.938,-0.35654855
5424.866,-0.3563211
5426.795,-0.35544985
5428.723,-0.3537693
5430.652,-0.3542335
5432.58,-0.35582775
5434.509,-0.35512055
5436.438,-0.3559965
5438.366,-0.35695835
5440.294,-0.35557565
5442.223,-0.35497115
5444.151,-0.35596655
5446.08,-0.35485505
5448.008,-0.35475595
5449.937,-0.35432495
5451.865,-0.35561275
5453.794,-0.35654225
5455.722,-0.3560743
5457.651,-0.3552027
5459.579,-0.3549408
5461.508,-0.35414555
5463.436,-0.3551682
5465.365,-0.35585735
5467.293,-0.3554438
5469.222,-0.35512975
5471.15,-0.3558905
5473.079,-0.35572095
5475.007,-0.35446425
5476.936,-0.3545024
5478.864,-0.356024
5480.793,-0.356125
5482.721,-0.35671395
5484.65,-0.35684685
5486.578,-0.35659695
5488.507,-0.3554522
5490.435,-0.35558315
5492.364,-0.3553355
5494.292,-0.35509615
5496.221,-0.35485725
5498.149,-0.3547232
5500.078,-0.35548195
5502.006,-0.3556001
5503.935,-0.3548389
5505.863,-0.35483175
5507.792,-0.35379765
5509.72,-0.354294
5511.649,-0.35479725
5513.577,-0.3552439
5515.506,-0.35508285
5517.434,-0.35459535
5519.363,-0.3546901
5521.291,-0.35514445
5523.22,-0.3549686
5525.148,-0.35526875
5527.077,-0.35450835
5529.005,-0.3541627
5530.934,-0.3546088
5532.862,-0.3550062
5534.791,-0.3542703
5536.719,-0.3540337
5538.648,-0.35467245
5540.576,-0.3553524
5542.505,-0.3553098
5544.433,-0.35479965
5546.362,-0.3536627
5548.29,-0.35377925
5550.219,-0.3538435
5552.147,-0.35338995
5554.076,-0.3532838
5556.004,-0.3532571
5557.933,-0.35386
5559.861,-0.35430105
5561.79,-0.352971
5563.718,-0.3534306
5565.646,-0.35327355
5567.575,-0.3534046
5569.504,-0.3537666
5571.432,-0.35355155
5573.361,-0.35281335
5575.289,-0.3527694
5577.218,-0.35322265
5579.146,-0.3541688
5581.075,-0.3537639
5583.003,-0.352641
5584.932,-0.35238625
5586.86,-0.3525646
5588.789,-0.35213645
5590.717,-0.35263335
5592.646,-0.3525326
5594.574,-0.35265035
5596.502,-0.35220505
5598.431,-0.35233105
5600.36,-0.35203415
5602.288,-0.3518399
5604.217,-0.35174815
5606.145,-0.3521276
5608.074,-0.35186635
5610.002,-0.35153835
5611.931,-0.35054665
5613.859,-0.3510132
5615.788,-0.351539
5617.716,-0.35185795
5619.645,-0.351942
5621.573,-0.35141255
5623.501,-0.35060515
5625.43,-0.35093465
5627.358,-0.3511029
5629.287,-0.3509746
5631.216,-0.35056535
5633.144,-0.3506015
5635.073,-0.35093715
5637.001,-0.3514813
5638.93,-0.35106805
5640.858,-0.35070515
5642.787,-0.350762
5644.715,-0.35151585
5646.644,-0.3514742
5648.572,-0.350912
5650.5,-0.35006055
5652.429,-0.3507194
5654.357,-0.35029435
5656.286,-0.349394
5658.215,-0.3492331
5660.143,-0.3500201
5662.072,-0.3496294
5664.0,-0.349511
5665.929,-0.34936335
5667.857,-0.3496351
5669.786,-0.349813
5671.714,-0.3504035
5673.643,-0.34977245
5675.571,-0.3493963
5677.5,-0.34872625
5679.428,-0.3488988
5681.356,-0.34908835
5683.285,-0.3493037
5685.213,-0.34919325
5687.142,-0.34966745
5689.071,-0.349931
5690.999,-0.3497931
5692.928,-0.3491545
5694.856,-0.34935655
5696.785,-0.3485899
5698.713,-0.3477003
5700.642,-0.3478143
5702.57,-0.3480945
5704.499,-0.3470844
5706.427,-0.34730285
5708.355,-0.34745075
5710.284,-0.3470136
5712.212,-0.346515
5714.141,-0.34720345
5716.069,-0.347569
5717.998,-0.34783715
5719.927,-0.3471228
5721.855,-0.34613815
5723.784,-0.3462226
5725.712,-0.34737935
5727.641,-0.3470393
5729.569,-0.34541235
5731.498,-0.3446866
5733.426,-0.3460572
5735.354,-0.34633455
5737.283,-0.34540155
5739.211,-0.3451757
5741.14,-0.34619145
5743.068,-0.34586405
5744.997,-0.3452695
5746.926,-0.34502495
5748.854,-0.3452483
5750.783,-0.34456205
5752.711,-0.34450015
5754.64,-0.3447225
5756.568,-0.34446255
5758.497,-0.34406355
5760.425,-0.34426135
5762.354,-0.34414615
5764.282,-0.3439603
5766.21,-0.3432561
5768.139,-0.3434058
5770.067,-0.3436006
5771.996,-0.34381195
5773.924,-0.3434989
5775.853,-0.34267815
5777.782,-0.34175135
5779.71,-0.3424826
5781.639,-0.34224065
5783.567,-0.342861
5785.496,-0.343226
5787.424,-0.34298505
5789.353,-0.34236645
5791.281,-0.3418733
5793.209,-0.3406133
5795.138,-0.3406468
5797.066,-0.3412164
5798.995,-0.3414433
5800.923,-0.3409658
5802.852,-0.34054245
5804.78,-0.3397928
5806.709,-0.3399256
5808.638,-0.3393338
5810.566,-0.33884445
5812.495,-0.339628
5814.423,-0.3404944
5816.352,-0.339388
5818.28,-0.33889325
5820.208,-0.33836945
5822.137,-0.3385604
5824.065,-0.33825435
5825.994,-0.3382349
5827.922,-0.3378694
5829.851,-0.3378817
5831.779,-0.3381413
5833.708,-0.3384087
5835.637,-0.3377874
5837.565,-0.3377831
5839.494,-0.33732905
5841.422,-0.3379439
5843.351,-0.33684515
5845.279,-0.33561545
5847.208,-0.3357493
5849.136,-0.3372611
5851.064,-0.3373267
5852.993,-0.3370035
5854.921,-0.33734135
5856.85,-0.3378619
5858.778,-0.3372993
5860.707,-0.3363999
5862.635,-0.3361356
5864.564,-0.33621815
5866.493,-0.3346386
5868.421,-0.33426305
5870.35,-0.33477565
5872.278,-0.3349084
5874.207,-0.33447865
5876.135,-0.33424395
5878.063,-0.33324295
5879.992,-0.33268505
5881.92,-0.3323217
5883.849,-0.3326431
5885.777,-0.3328216
5887.706,-0.33301195
5889.634,-0.3316553
5891.563,-0.33146295
5893.491,-0.33170425
5895.42,-0.33189475
5897.349,-0.33172965
5899.277,-0.3316654
5901.206,-0.3316905
5903.134,-0.33152655
5905.063,-0.33101895
5906.991,-0.3308699
5908.919,-0.3308267
5910.848,-0.3316304
5912.776,-0.3310715
5914.705,-0.33076505
5916.633,-0.3301163
5918.562,-0.3296892
5920.49,-0.32872155
5922.419,-0.32823895
5924.347,-0.3276265
5926.276,-0.3272647
5928.205,-0.32830735
5930.133,-0.3290235
5932.062,-0.32764265
5933.99,-0.32760385
5935.918,-0.328109
5937.847,-0.3283047
5939.775,-0.3276797
5941.704,-0.327334
5943.632,-0.3259826
5945.561,-0.32519135
5947.489,-0.324657
5949.418,-0.3252558
5951.346,-0.32520955
5953.275,-0.3256258
5955.204,-0.32523975
5957.132,-0.3249837
5959.061,-0.32401655
5960.989,-0.3231825
5962.917,-0.32299205
5964.846,-0.3235412
5966.774,-0.3233051
5968.703,-0.32252605
5970.631,-0.32204845
5972.56,-0.3218694
5974.488,-0.3217036
5976.417,-0.3221246
5978.345,-0.32101905
5980.274,-0.32067885
5982.202,-0.32035635
5984.131,-0.3206751
5986.06,-0.3195708
5987.988,-0.31915235
5989.917,-0.3189842
5991.845,-0.3198412
5993.773,-0.31924105
5995.702,-0.3179962
5997.63,-0.31728955
5999.559,-0.31762565
6001.487,-0.3177776
6003.416,-0.3183448
6005.344,-0.3170964
6007.273,-0.3164063
6009.201,-0.3154215
6011.13,-0.3151403
6013.058,-0.31590335
6014.987,-0.3160432
6016.916,-0.31469825
6018.844,-0.314382
6020.772,-0.3140005
6022.701,-0.31320395
6024.629,-0.31231275
6026.558,-0.3125837
6028.486,-0.3120162
6030.415,-0.3117181
6032.343,-0.31071045
6034.272,-0.31108755
6036.2,-0.31187575
6038.129,-0.312455
6040.057,-0.31113805
6041.986,-0.310715
6043.915,-0.3096714
6045.843,-0.3090638
6047.771,-0.308672
6049.7,-0.3086698
6051.628,-0.30854645
6053.557,-0.3091726
6055.485,-0.3086017
6057.414,-0.30841565
6059.342,-0.3071236
6061.271,-0.30650725
6063.199,-0.30599505
6065.128,-0.3058125
6067.056,-0.3051298
6068.985,-0.3052539
6070.913,-0.30442365
6072.842,-0.30384805
6074.771,-0.30397295
6076.699,-0.30451395
6078.627,-0.3037904
6080.556,-0.30333045
6082.484,-0.3028865
6084.413,-0.30287015
6086.341,-0.3017447
6088.27,-0.30197775
6090.198,-0.301513
6092.127,-0.30024395
6094.055,-0.2995366
6095.984,-0.3000819
6097.912,-0.2988747
6099.841,-0.29815755
6101.769,-0.298562
6103.698,-0.29949945
6105.626,-0.29821795
6107.555,-0.2975617
6109.483,-0.2974662
6111.412,-0.2974412
6113.34,-0.2965811
6115.269,-0.2964044
6117.197,-0.29512605
6119.126,-0.29403205
6121.054,-0.29256615
6122.983,-0.29176615
6124.911,-0.2923083
6126.84,-0.29332935
6128.768,-0.2924702
6130.697,-0.2917654
6132.625,-0.2906196
6134.554,-0.29083165
6136.482,-0.2909984
6138.411,-0.28991785
6140.339,-0.28870765
6142.268,-0.29008365
6144.196,-0.2893172
6146.125,-0.2874037
6148.053,-0.28538895
6149.982,-0.28560005
6151.91,-0.2846208
6153.839,-0.28453525
6155.767,-0.2843246
6157.696,-0.28395205
6159.624,-0.28407145
6161.553,-0.28463425
6163.481,-0.28362775
6165.41,-0.28311055
6167.338,-0.28232115
6169.267,-0.28156055
6171.195,-0.28036325
6173.124,-0.2808374
6175.052,-0.2801163
6176.981,-0.279531
6178.909,-0.27849035
6180.838,-0.27854085
6182.766,-0.27732565
6184.695,-0.27824405
6186.623,-0.27750605
6188.552,-0.27728555
6190.48,-0.27743685
6192.409,-0.27698175
6194.337,-0.27524655
6196.266,-0.2748898
6198.194,-0.27408035
6200.123,-0.27366135
6202.051,-0.27310065
6203.979,-0.2729993
6205.908,-0.27151285
6207.837,-0.2713752
6209.765,-0.27068215
6211.694,-0.2697497
6213.622,-0.26876795
6215.551,-0.2687799
6217.479,-0.2686268
6219.408,-0.26878325
6221.336,-0.26782975
6223.265,-0.2670562
6225.193,-0.2657741
6227.122,-0.2648336
6229.05,-0.2638571
6230.979,-0.2636038
6232.907,-0.26241885
6234.835,-0.2634475
6236.764,-0.2627316
6238.693,-0.2609895
6240.621,-0.2602788
6242.55,-0.2606734
6244.478,-0.25888215
6246.407,-0.2588162
6248.335,-0.2579467
6250.264,-0.25761725
6252.192,-0.2570077
6254.121,-0.2562149
6256.049,-0.25419985
6257.978,-0.25333695
6259.906,-0.25222598
6261.834,-0.2528425
6263.763,-0.252818945
6265.691,-0.25260096
6267.62,-0.250614695
6269.549,-0.25011148
6271.477,-0.24909604
6273.406,-0.2495479
6275.334,-0.248893805
6277.263,-0.247471435
6279.191,-0.24626638
6281.12,-0.24578426
6283.048,-0.24464912
6284.977,-0.244592575
6286.905,-0.24329062
6288.833,-0.243249565
6290.762,-0.242102705
6292.69,-0.24060839
6294.619,-0.239233985
6296.548,-0.23904426
6298.476,-0.237910035
6300.405,-0.23796726
6302.333,-0.237844655
6304.262,-0.237975565
6306.19,-0.23601285
6308.119,-0.234289885
6310.047,-0.23313654
6311.976,-0.234520835
6313.904,-0.23292277
6315.833,-0.231920085
6317.761,-0.23265311
6319.689,-0.231622015
6321.618,-0.228714895
6323.546,-0.22792225
6325.475,-0.228657265
6327.404,-0.22804405
6329.332,-0.22537231
6331.261,-0.22531858
6333.189,-0.22587665
6335.118,-0.22680791
6337.046,-0.224616435
6338.975,-0.22267596
6340.903,-0.221437245
6342.832,-0.22172589
6344.76,-0.22026581
6346.688,-0.218105275
6348.617,-0.215652695
6350.545,-0.21589197
6352.474,-0.216104685
6354.402,-0.21642396
6356.331,-0.21563619
6358.26,-0.214524405
6360.188,-0.212262025
6362.117,-0.211540395
6364.045,-0.210512335
6365.974,-0.21059428
6367.902,-0.20983169
6369.831,-0.20860326
6371.759,-0.20681937
6373.688,-0.205375525
6375.616,-0.20414648
6377.544,-0.20352506
6379.473,-0.20309388
6381.401,-0.20280497
6383.33,-0.2003625
6385.259,-0.20009526
6387.187,-0.199533375
6389.116,-0.199555025
6391.044,-0.19626788
6392.973,-0.19459399
6394.901,-0.19514244
6396.83,-0.19629564
6398.758,-0.194549635
6400.687,-0.193258865
6402.615,-0.19276819
6404.543,-0.19298108
6406.472,-0.19002929
6408.4,-0.18945693
6410.329,-0.18844619
6412.257,-0.18775037
6414.186,-0.18577003
6416.115,-0.185295955
6418.043,-0.18302436
6419.972,-0.18241719
6421.9,-0.181792455
6423.829,-0.18136693
6425.757,-0.1801935
6427.686,-0.17939786
6429.614,-0.17863551
6431.542,-0.17804195
6433.471,-0.17594827
6435.399,-0.175845405
6437.328,-0.17611556
6439.256,-0.17575616
6441.185,-0.17280237
6443.113,-0.17127232
6445.042,-0.169559755
6446.971,-0.16905633
6448.899,-0.168493125
6450.828,-0.166831235
6452.756,-0.16510309
6454.685,-0.164852945
6456.613,-0.16302849
6458.542,-0.163443225
6460.47,-0.16201218
6462.398,-0.160787917
6464.327,-0.1592809865
6466.255,-0.158804414
6468.184,-0.1580485005
6470.112,-0.156680805
6472.041,-0.154711921
6473.97,-0.153756763
6475.898,-0.151286534
6477.827,-0.1507253255
6479.755,-0.151371192
6481.684,-0.149982026
6483.612,-0.1469951845
6485.541,-0.1465334875
6487.469,-0.144111814
6489.397,-0.142191728
6491.326,-0.14069614
6493.254,-0.14053401
6495.183,-0.13953635
6497.111,-0.137281075
6499.04,-0.13610339
6500.968,-0.13746504
6502.897,-0.13586912
6504.826,-0.133519555
6506.754,-0.130235945
6508.683,-0.13031754
6510.611,-0.128834075
6512.54,-0.128416905
6514.468,-0.127239415
6516.396,-0.125929975
6518.325,-0.124374175
6520.253,-0.124187995
6522.182,-0.12321694
6524.11,-0.1225074
6526.039,-0.120340955
6527.967,-0.119177215
6529.896,-0.11792374
6531.824,-0.11831162
6533.753,-0.11661506
6535.682,-0.114951585
6537.61,-0.113176135
6539.539,-0.11186124
6541.467,-0.10892085
6543.396,-0.108526395
6545.324,-0.10747338
6547.252,-0.10589335
6549.181,-0.105028245
6551.109,-0.104849645
6553.038,-0.102230735
6554.966,-0.101287965
6556.895,-0.09871223
6558.823,-0.097422085
6560.752,-0.094749675
6562.68,-0.09397463
6564.609,-0.09323164
6566.538,-0.09184204
6568.466,-0.089098655
6570.395,-0.08908671
6572.323,-0.08836725
6574.251,-0.088208515
6576.18,-0.08519945
6578.108,-0.0829489
6580.037,-0.08264264
6581.965,-0.082063085
6583.894,-0.079822265
6585.822,-0.07989751
6587.751,-0.07789416
6589.679,-0.077120155
6591.608,-0.074235415
6593.537,-0.073361015
6595.465,-0.071107535
6597.394,-0.069392885
6599.322,-0.06704337
6601.25,-0.065787695
6603.179,-0.064711435
6605.107,-0.063631865
6607.036,-0.060421875
6608.964,-0.05909169
6610.893,-0.05899774
6612.821,-0.059150715
6614.75,-0.05647129
6616.678,-0.05426383
6618.607,-0.0535777
6620.535,-0.05351843
6622.464,-0.04770105
6624.393,-0.04522445
6626.321,-0.04409985
6628.25,-0.0442617
6630.178,-0.04245545
6632.106,-0.0425467
6634.035,-0.04075785
6635.963,-0.040695
6637.892,-0.03910475
6639.82,-0.03730065
6641.749,-0.0345215
6643.677,-0.0331379
6645.606,-0.0305487
6647.534,-0.030531
6649.463,-0.0302148
6651.391,-0.02842305
6653.32,-0.0250015
6655.249,-0.02513545
6657.177,-0.0225338
6659.105,-0.01868325
6661.034,-0.0166192
6662.962,-0.0155589
6664.891,-0.01496325
6666.819,-0.01483635
6668.748,-0.0119139
6670.676,-0.0098784
6672.605,-0.00669595
6674.533,-0.00712185
6676.462,-0.0064272
6678.39,-0.0066439
6680.319,-0.0051064
6682.248,-0.0033237
6684.176,0.00065155
6686.104,0.00309725
6688.033,0.0053854
6689.961,0.0061396
6691.89,0.0078346
6693.818,0.0099468
6695.747,0.01195015
6697.675,0.0133219
6699.604,0.01638595
6701.532,0.0171459
6703.461,0.01914385
6705.389,0.0193124
6707.318,0.0213992
6709.246,0.02218645
6711.175,0.02568135
6713.104,0.0284125
6715.032,0.031634
6716.96,0.0330681
6718.889,0.03624935
6720.817,0.0374861
6722.746,0.03680415
6724.674,0.03478565
6726.603,0.03861265
6728.531,0.04282725
6730.46,0.0450799
6732.388,0.045972335
6734.317,0.048913655
6736.245,0.049310045
6738.174,0.05051201
6740.102,0.05162789
6742.031,0.05645347
6743.959,0.05900943
6745.888,0.06047743
6747.816,0.06029985
6749.745,0.06230853
6751.673,0.064438375
6753.602,0.068161285
6755.53,0.0693985
6757.459,0.071391665
6759.387,0.073429215
6761.316,0.076909255
6763.244,0.0789902
6765.173,0.080639985
6767.101,0.080665155
6769.03,0.08148466
6770.958,0.08337109
6772.887,0.08906965
6774.815,0.089489365
6776.744,0.08915521
6778.672,0.090271255
6780.601,0.09395688
6782.529,0.096205155
6784.458,0.09601995
6786.386,0.098781325
6788.315,0.10308852
6790.243,0.10216392
6792.172,0.105899935
6794.1,0.106357125
6796.029,0.108265795
6797.957,0.11405646
6799.886,0.116430175
6801.814,0.11537691
6803.743,0.120329125
6805.671,0.123155645
6807.6,0.123999545
6809.528,0.12600747
6811.457,0.13088001
6813.385,0.13091596
6815.313,0.129918555
6817.242,0.132617435
6819.171,0.1393045875
6821.099,0.1422580325
6823.028,0.1395878945
6824.956,0.1363660535
6826.885,0.141926228
6828.813,0.14715476425
6830.742,0.1492044065
6832.67,0.147679926
6834.599,0.1492444715
6836.527,0.150400368
6838.456,0.1550685
6840.384,0.157421345
6842.313,0.16028191
6844.241,0.162844225
6846.17,0.166015345
6848.098,0.165150735
6850.027,0.16508551
6851.955,0.166233585
6853.884,0.173358915
6855.812,0.17922058
6857.741,0.17898404
6859.669,0.177038095
6861.598,0.18286667
6863.526,0.18455418
6865.455,0.18560381
6867.383,0.19237346
6869.312,0.198572375
6871.24,0.19529973
6873.168,0.198725895
6875.097,0.1985064
6877.026,0.200239255
6878.954,0.202806975
6880.883,0.204658945
6882.811,0.208177125
6884.74,0.21069771
6886.668,0.20624099
6888.597,0.209766375
6890.525,0.213923965
6892.454,0.215292405
6894.382,0.218863465
6896.311,0.22422764
6898.239,0.22503739
6900.167,0.22530837
6902.096,0.2275319
6904.024,0.226634305
6905.953,0.225546665
6907.882,0.230727645
6909.81,0.236698895
6911.739,0.23963495
6913.667,0.24143477
6915.596,0.24412203
6917.524,0.24709275
6919.453,0.2508374
6921.381,0.25310375
6923.31,0.2551033
6925.238,0.25412605
6927.167,0.25899905
6929.095,0.2605106
6931.023,0.26121405
6932.952,0.26557945
6934.881,0.2694286
6936.809,0.26477515
6938.738,0.2643249
6940.666,0.2698976
6942.595,0.2782402
6944.523,0.27786555
6946.452,0.2805755
6948.38,0.27926115
6950.309,0.27970975
6952.237,0.2842141
6954.166,0.29070075
6956.094,0.29227585
6958.022,0.2971764
6959.951,0.3029205
6961.879,0.3022086
6963.808,0.29969965
6965.737,0.30248055
6967.665,0.30188965
6969.594,0.3061838
6971.522,0.30822985
6973.451,0.31615865
6975.379,0.315999
6977.308,0.3111776
6979.236,0.3159164
6981.165,0.32931685
6983.093,0.33253665
6985.021,0.32727975
6986.95,0.32997635
6988.878,0.33750135
6990.807,0.3365102
6992.735,0.3354155
6994.664,0.3390994
6996.593,0.342402
6998.521,0.34490375
7000.45,0.3521955
7002.378,0.35176525
7004.307,0.35227455
7006.235,0.35515655
7008.164,0.3609242
7010.092,0.36326295
7012.021,0.3677202
7013.949,0.3664309
7015.877,0.3628141
7017.806,0.3693288
7019.734,0.38181375
7021.663,0.38227275
7023.592,0.37660455
7025.52,0.3742485
7027.449,0.38535415
7029.377,0.3929279
7031.306,0.39284205
7033.234,0.39317135
7035.163,0.3952113
7037.091,0.39804315
7039.02,0.403428
7040.948,0.39732065
7042.876,0.39517385
7044.805,0.40366905
7046.733,0.40305975
7048.662,0.39934005
7050.59,0.41087345
7052.519,0.4167862
7054.448,0.42133875
7056.376,0.41922965
7058.305,0.4111111
7060.233,0.4136634
7062.162,0.42219155
7064.09,0.42409445
7066.019,0.4269553
7067.947,0.42921915
7069.875,0.43706925
7071.804,0.4426618
7073.732,0.44446345
7075.661,0.44070225
7077.589,0.44410485
7079.518,0.45150025
7081.446,0.45660845
7083.375,0.45486395
7085.304,0.4548791
7087.232,0.45872355
7089.161,0.46332305
7091.089,0.46546815
7093.018,0.47097325
7094.946,0.4716794
7096.875,0.4732622
7098.803,0.47127215
7100.731,0.47593195
7102.66,0.48368985
7104.588,0.48392835
7106.517,0.4849948
7108.445,0.4859608
7110.374,0.49537205
7112.302,0.50729925
7114.231,0.4982526
7116.16,0.4964713
7118.088,0.50430715
7120.017,0.5127842
7121.945,0.51031865
7123.874,0.51596225
7125.802,0.52530515
7127.73,0.53070075
7129.659,0.52703765
7131.587,0.5200915
7133.516,0.5185252
7135.444,0.5304448
7137.373,0.53016495
7139.301,0.5345627
7141.23,0.54221375
7143.159,0.543476
7145.087,0.5367254
7147.016,0.5394643
7148.944,0.53970975
7150.873,0.53887125
7152.801,0.5467435
7154.729,0.54804095
7156.658,0.53761485
7158.586,0.540483
7160.515,0.5548437
7162.443,0.5617185
7164.372,0.55592915
7166.3,0.56148995
7168.229,0.578964
7170.157,0.5902323
7172.086,0.58054515
7174.015,0.5928354
7175.943,0.588318
7177.872,0.57515765
7179.8,0.5607379
7181.729,0.5614053
7183.657,0.57791015
7185.585,0.59023915
7187.514,0.58688745
7189.442,0.58785795
7191.371,0.60358925
7193.299,0.6045809
7195.228,0.5908578
7197.156,0.58925
7199.085,0.5932936
7201.013,0.59660895
7202.942,0.59504085
7204.871,0.5960747
7206.799,0.60184645
7208.728,0.61992955
7210.656,0.6268266
7212.584,0.6369383
7214.513,0.63636675
7216.441,0.63656655
7218.37,0.64821865
7220.298,0.64632285
7222.227,0.64016425
7224.155,0.64941245
7226.084,0.6523613
7228.012,0.63849865
7229.941,0.6237679
7231.87,0.62917695
7233.798,0.64200335
7235.727,0.65922055
7237.655,0.6738049
7239.583,0.67584415
7241.512,0.66530805
7243.44,0.668423
7245.369,0.6699726
7247.297,0.6768755
7249.226,0.6899468
7251.154,0.69305285
7253.083,0.6888202
7255.011,0.69142365
7256.94,0.70482415
7258.868,0.6965846
7260.797,0.68328245
7262.726,0.69431065
7264.654,0.69486455
7266.583,0.67193415
7268.511,0.6572695
7270.439,0.675646
7272.368,0.68681355
7274.296,0.6873178
7276.225,0.691475
7278.153,0.69416695
7280.082,0.68031085
7282.01,0.69802635
7283.939,0.72056645
7285.867,0.71710035
7287.796,0.71281305
7289.724,0.71518775
7291.653,0.70259335
7293.582,0.7140864
7295.51,0.7477147
7297.438,0.75825845
7299.367,0.75253665
7301.295,0.7485064
7303.224,0.7388749
7305.152,0.74595915
7307.081,0.74201215
7309.009,0.7207099
7310.938,0.72364935
7312.866,0.75000225
7314.795,0.7486186
7316.723,0.74390775
7318.652,0.74768375
7320.581,0.74802515
7322.509,0.74784375
7324.438,0.7624205
7326.366,0.773884
7328.294,0.7737644
7330.223,0.7610456
7332.151,0.7737917
7334.08,0.79101885
7336.008,0.78524295
7337.937,0.7806322
7339.865,0.79599765
7341.794,0.82278375
7343.722,0.79871465
7345.651,0.7852151
7347.579,0.8117818
7349.508,0.8209386
7351.437,0.8364731
7353.365,0.83790735
7355.293,0.81261945
7357.222,0.7978229
7359.15,0.8110404
7361.079,0.8195242
7363.007,0.80539175
7364.936,0.78435265
7366.864,0.7879583
7368.793,0.79495645
7370.721,0.82147655
7372.65,0.8269595
7374.578,0.8334536
7376.507,0.8548867
7378.435,0.8495561
7380.364,0.83730575
7382.292,0.8294257
7384.221,0.8166009
7386.149,0.84048675
7388.078,0.85324045
7390.006,0.83413595
7391.935,0.84476515
7393.863,0.8594777
7395.792,0.8310765
7397.72,0.83746575
7399.649,0.82711495
7401.577,0.8397413
7403.506,0.8654112
7405.434,0.84829735
7407.363,0.8375775
7409.291,0.83604025
7411.22,0.84955485
7413.148,0.84876945
7415.077,0.8260902
7417.005,0.8348909
7418.934,0.8590862
7420.862,0.8523269
7422.791,0.85250245
7424.719,0.8622074
7426.648,0.8520856
7428.576,0.8627915
7430.505,0.86109385
7432.433,0.8650989
7434.362,0.8768736
7436.29,0.87023245
7438.219,0.87751605
7440.147,0.92726945
7442.076,0.9206956
7444.004,0.8935039
7445.933,0.8804335
7447.861,0.88890525
7449.79,0.8872161
7451.718,0.880125
7453.646,0.8728542
7455.575,0.88229855
7457.504,0.9037297
7459.432,0.93308875
7461.361,0.92966105
7463.289,0.9178606
7465.218,0.892985
7467.146,0.9087972
7469.075,0.9330114
7471.003,0.92267235
7472.932,0.89772455
7474.86,0.8774069
7476.789,0.9040926
7478.717,0.92978745
7480.646,0.89764445
7482.574,0.86024415
7484.503,0.8672615
7486.431,0.91027955
7488.36,0.9375441
7490.288,0.93561835
7492.217,0.90519815
7494.145,0.9141001
7496.074,0.95337595
7498.002,0.93832195
7499.931,0.9098302
7501.859,0.90735415
7503.788,0.93943325
7505.716,0.9651191
7507.645,0.9670908
7509.573,0.94337225
7511.501,0.92347225
7513.43,0.9304694
7515.359,0.9730255
7517.287,0.99100105
7519.216,0.9405802
7521.144,0.9166662
7523.073,0.90734135
7525.001,0.90466825
7526.93,0.9158901
7528.858,0.94576435
7530.787,0.9749297
7532.715,0.9557848
7534.644,0.92958245
7536.572,0.89849805
7538.5,0.92301645
7540.429,0.951694
7542.357,0.9282141
7544.286,0.9182003
7546.215,0.94915735
7548.143,0.93113235
7550.072,0.8892383
7552.0,0.87001825
7553.929,0.87016165
7555.857,0.8858806
7557.786,0.92366025
7559.714,0.9140911
7561.643,0.93063465
7563.571,0.96028015
7565.5,0.93269535
7567.428,0.91935495
7569.356,0.95022635
7571.285,0.9586966
7573.214,0.93995345
7575.142,0.9530963
7577.071,0.9294519
7578.999,0.89954995
7580.928,0.90781285
7582.856,0.920943
7584.785,0.9599882
7586.713,1.0111352
7588.642,1.00757785
7590.57,0.9816714
7592.499,0.96455935
7594.427,1.0149279
7596.355,1.04305735
7598.284,1.0227563
7600.212,1.01292995
7602.141,0.99860625
7604.07,1.00541385
7605.998,0.9859736
7607.927,0.9471956
7609.855,0.91946415
7611.784,0.9607893
7613.712,1.0148511
7615.641,0.96096505
7617.569,0.92152155
7619.498,0.9650828
7621.426,0.9889519
7623.354,0.9734195
7625.283,0.98593145
7627.211,0.9960047
7629.14,0.98772935
7631.068,0.9971181
7632.997,0.99018845
7634.926,0.962857
7636.854,0.93686055
7638.783,0.9275261
7640.711,0.95408335
7642.64,0.9603483
7644.568,0.94979545
7646.497,0.9114072
7648.425,0.96387895
7650.354,1.0103143
7652.282,0.9922073
7654.21,1.0167919
7656.139,1.070073
7658.067,1.03095825
7659.996,0.98657755
7661.925,1.0353909
7663.853,1.0507782
7665.782,0.9774667
7667.71,0.94918415
7669.639,0.9237414
7671.567,0.94205065
7673.496,0.9617611
7675.424,0.94506345
7677.353,0.9617856
7679.281,1.041476
7681.209,1.031593
7683.138,0.94488875
7685.066,0.94570695
7686.995,1.002325
7688.923,1.05083975
7690.852,1.03936535
7692.781,0.969239
7694.709,0.9721342
7696.638,1.1048439
7698.566,1.12835735
7700.495,1.0138156
7702.423,0.98379065
7704.352,1.02421905
7706.28,1.03546745
7708.208,1.03190225
7710.137,1.0444963
7712.065,1.0228946
7713.994,0.95198635
7715.922,0.92794005
7717.851,0.96432925
7719.779,0.9541789
7721.708,0.96221185
7723.637,0.928483
7725.565,0.9076069
7727.494,0.99591585
7729.422,1.0611915
7731.351,1.01161235
7733.279,0.9146425
7735.208,0.8968255
7737.136,0.9575336
7739.064,1.03453275
7740.993,1.0365905
7742.921,0.957402
7744.85,0.97725825
7746.778,1.03035185
7748.707,0.990227
7750.635,0.96939085
7752.564,0.96606505
7754.493,0.96561275
7756.421,0.95918915
7758.35,0.90514345
7760.278,0.91101745
7762.207,0.9318148
7764.135,0.9653593
7766.063,0.99439445
7767.992,0.9708259
7769.92,0.9646477
7771.849,0.9714111
7773.777,0.9959667
7775.706,0.99882795
7777.634,1.0100154
7779.563,0.9885139
7781.492,0.94059235
7783.42,0.9546723
7785.349,0.993661
7787.277,0.9932732
7789.206,0.93565095
7791.134,0.9528601
7793.063,1.03296415
7794.991,1.0917334
7796.919,1.05291805
7798.848,1.02053125
7800.776,0.971402
7802.705,0.9978776
7804.633,1.02414595
7806.562,0.99701815
7808.49,0.98601375
7810.419,0.9623719
7812.348,0.9810982
7814.276,0.941672
7816.205,0.90458305
7818.133,0.8950176
7820.062,0.8885306
7821.99,0.9347339
7823.918,0.95876465
7825.847,0.94674825
7827.775,0.9032341
7829.704,0.8729486
7831.632,0.92245635
7833.561,0.93885125
7835.489,0.9352562
7837.418,0.93625795
7839.346,0.9743771
7841.275,1.031346
7843.204,0.9630904
7845.132,0.9855691
7847.061,0.9880494
7848.989,0.9572715
7850.917,0.9412818
7852.846,0.9459624
7854.774,0.9435895
7856.703,0.90407565
7858.631,0.88035365
7860.56,0.9470251
7862.488,1.00758845
7864.417,0.93952315
7866.345,0.8853528
7868.274,0.87785145
7870.203,0.88665155
7872.131,0.90702455
7874.06,0.9116237
7875.988,0.89054085
7877.917,0.8834366
7879.845,0.9156529
7881.773,0.93522715
7883.702,0.8859708
7885.63,0.9053467
7887.559,0.9072897
7889.487,0.82644855
7891.416,0.8653753
7893.344,0.88520305
7895.273,0.86869495
7897.201,0.9140363
7899.13,0.9209324
7901.059,0.83086245
7902.987,0.8072987
7904.916,0.81765915
7906.844,0.81764515
7908.772,0.88211995
7910.701,0.9104525
7912.629,0.91646655
7914.558,0.86826685
7916.486,0.8693695
7918.415,0.8876417
7920.343,0.8685982
7922.272,0.884694
7924.2,0.8992147
7926.129,0.93142575
7928.057,0.94700335
7929.986,0.8919262
7931.915,0.85312395
7933.843,0.9533784
7935.771,1.11669945
7937.7,1.0328809
7939.628,0.8914351
7941.557,0.8561819
7943.485,0.86032
7945.414,0.8823732
7947.342,0.85073415
7949.271,0.88382075
7951.199,0.9270448
7953.128,0.9247801
7955.056,0.85786495
7956.985,0.8410898
7958.914,0.8556031
7960.842,0.9751771
7962.771,0.96692005
7964.699,0.9039785
7966.627,0.88752025
7968.556,0.9737592
7970.484,1.0175416
7972.413,0.9303948
7974.341,0.93231095
7976.27,0.9731102
7978.198,0.92355945
7980.127,0.8774563
7982.055,0.8778198
7983.984,0.82822655
7985.912,0.76457615
7987.841,0.8180285
7989.77,0.97130845
7991.698,0.9617765
7993.626,0.90219925
7995.555,0.9330177
7997.483,0.90882185
7999.412,0.84684855
8001.34,0.8028477
8003.269,0.7886949
8005.197,0.8284342
8007.126,0.93675635
8009.054,0.98830405
8010.983,0.96346685
8012.911,0.87198655
8014.84,0.82128805
8016.768,0.84697325
8018.697,0.8847727
8020.625,0.8631308
8022.554,0.832483
8024.482,0.85358465
8026.411,0.8412504
8028.339,0.7958764
8030.268,0.76442935
8032.196,0.78305375
8034.125,0.87920525
8036.053,1.0159337
8037.982,1.07965735
8039.91,1.0630871
8041.839,0.92258395
8043.767,0.8509294
8045.696,0.88948305
8047.624,0.85969215
8049.553,0.83955385
8051.481,0.79356595
8053.41,0.75316525
8055.338,0.71424845
8057.267,0.7238978
8059.195,0.8022963
8061.124,0.87602545
8063.052,0.83069325
8064.981,0.8420963
8066.909,0.9110952
8068.838,0.87583635
8070.766,0.8418014
8072.695,0.85896115
8074.623,0.8065965
8076.552,0.7334824
8078.48,0.756454
8080.409,0.8447929
8082.337,0.8773988
8084.266,0.88799115
8086.194,0.8859825
8088.123,0.8875211
8090.051,0.84425805
8091.979,0.8402509
8093.908,0.97655525
8095.837,0.9970183
8097.765,1.00945855
8099.694,0.9041329
8101.622,0.79277185
8103.551,0.8223729
8105.479,0.81128995
8107.408,0.75733655
8109.336,0.7629778
8111.265,0.77152335
8113.193,0.7756294
8115.122,0.7691603
8117.05,0.81794455
8118.979,0.830482
8120.907,0.87816615
8122.836,0.91717905
8124.764,0.82379555
8126.693,0.875467
8128.621,0.89176825
8130.55,0.8825128
8132.478,0.8548277
8134.407,0.7999713
8136.335,0.78287915
8138.264,0.7395587
8140.192,0.70954335
8142.121,0.73446415
8144.049,0.8033356
8145.978,0.82378275
8147.906,0.7940033
8149.834,0.8433257
8151.763,0.8004537
8153.692,0.8459866
8155.62,0.8909897
8157.549,0.8092015
8159.477,0.722599
8161.406,0.7232465
8163.334,0.69776465
8165.263,0.7282236
8167.191,0.71168235
8169.12,0.6608092
8171.048,0.7390407
8172.977,0.78820295
8174.905,0.7801683
8176.833,0.7715724
8178.762,0.7015936
8180.69,0.75932605
8182.619,0.8279752
8184.548,0.895569
8186.476,0.8423931
8188.405,0.74795
8190.333,0.84612095
8192.262,0.9072407
8194.19,0.8601911
8196.118,0.86338005
8198.047,0.84353625
8199.976,0.77692835
8201.904,0.7453743
8203.833,0.7445251
8205.761,0.79884455
8207.689,0.95517015
8209.618,1.0384426
8211.547,0.87522265
8213.476,0.8476926
8215.403,0.8054744
8217.332,0.87219055
8219.261,0.9672071
8221.189,1.05531685
8223.117,0.8194047
8225.046,0.7273596
8226.975,0.7608349
8228.903,0.86357035
8230.832,0.8348518
8232.76,0.74357135
8234.688,0.70298485
8236.617,0.7731024
8238.546,0.86355195
8240.474,0.8410838
8242.402,0.84656465
8244.331,0.7834023
8246.26,0.67462115
8248.188,0.6811617
8250.116,0.8070209
8252.045,0.8589523
8253.974,0.9037306
8255.902,0.80113035
8257.831,0.69610595
8259.759,0.7495981
8261.688,0.8869852
8263.616,0.86336375
8265.545,0.93154955
8267.473,0.9793659
8269.401,0.88428525
8271.33,0.8056826
8273.259,0.73866945
8275.188,0.71513615
8277.115,0.71456945
8279.044,0.66300815
8280.973,0.68988045
8282.901,0.67499525
8284.829,0.7866649
8286.758,1.16026055
8288.687,1.5264541
8290.615,0.99443005
8292.544,0.95760065
8294.472,0.9254258
8296.4,0.7982977
8298.329,0.76924825
8300.258,0.69790065
8302.187,0.6554056
8304.114,0.82077705
8306.043,0.79694265
8307.972,0.71731405
8309.9,0.7352143
8311.828,0.72970445
8313.757,0.709707
8315.686,0.77001785
8317.614,0.704524
8319.543,0.6344643
8321.471,0.5413384
8323.399,0.6314691
8325.328,0.81113705
8327.257,0.85613435
8329.185,0.8599236
8331.113,0.75004375
8333.042,0.7035439
8334.971,0.6853156
8336.899,0.7170394
8338.827,0.67186495
8340.756,0.6893483
8342.685,0.69316575
8344.613,0.7059554
8346.542,0.8227871
8348.47,0.7596131
8350.398,0.71006435
8352.327,0.7020844
8354.256,0.6911987
8356.184,0.7560116
8358.112,0.9093633
8360.041,1.10405775
8361.97,0.86154105
8363.898,0.75403745
8365.826,0.7925564
8367.755,0.85995015
8369.684,0.71432545
8371.612,0.64355285
8373.54,0.6897479
8375.469,0.7402125
8377.397,0.72508865
8379.326,0.69265955
8381.255,0.8307923
8383.183,0.798649
8385.111,0.59183275
8387.04,0.6595527
8388.969,0.8514625
8390.897,0.90362555
8392.825,0.8608334
8394.754,0.8404207
8396.683,0.77475025
8398.611,0.6247834
8400.539,0.64417745
8402.468,0.88019105
8404.396,1.03512005
8406.325,0.84726375
8408.254,0.97375455
8410.182,1.01940385
8412.11,0.90177825
8414.039,0.8797736
8415.968,0.9771622
8417.896,0.949044
8419.824,0.77966075
8421.753,0.6346886
8423.682,0.5857702
8425.61,0.6414933
8427.538,0.89027045
8429.467,0.86843355
8431.396,0.82179225
8433.324,0.6838849
8435.253,0.5078596
8437.181,0.65676075
8439.109,0.95673655
8441.038,0.98339335
8442.967,1.0670961
8444.895,0.7762183
8446.823,0.9891138
8448.752,0.98141735
8450.681,0.8635187
8452.609,0.8290502
8454.537,0.92046705
8456.466,0.8807153
8458.395,0.8267411
8460.323,0.9156248
8462.251,1.1235687
8464.18,0.9259447
8466.108,1.1648447
8468.037,3.37989695
8469.966,3.35043575
8471.894,0.82654195
8473.822,0.7709903
8475.751,1.0006824
8477.68,0.93811705
8479.608,0.58052235
8481.536,0.5344368
8483.465,0.7368591
8485.394,0.98304465
8487.322,0.88931885
8489.25,0.83424905
8491.179,0.86844575
8493.107,0.6724978
8495.036,0.58548355
8496.965,0.67075255
8498.893,1.0515882
8500.821,3.5675945
