wavenumber (/cm),baseline value (/cm),baseline-subtracted absorbance (/cm),
3.290019000000000233e+03,6.192108517545182877e-01,3.330669073875469621e-15
3.291947000000000116e+03,6.181843008172567266e-01,-7.395152571778362827e-03
3.293875000000000000e+03,6.171477676621996977e-01,-8.628676612578045635e-03
3.295804000000000087e+03,6.161007069008270776e-01,-8.487359625053425560e-04
3.297731999999999971e+03,6.150442041326797948e-01,9.137276776270963907e-03
3.299660999999999603e+03,6.139771634005306566e-01,8.962239907554403473e-03
3.301589000000000397e+03,6.129006910192895674e-01,1.925227695493969549e-04
3.303518000000000029e+03,6.118136703163710166e-01,-2.212495482547760517e-03
3.305447000000000116e+03,6.107166570379671811e-01,5.354684837521883622e-04
3.307375000000000000e+03,6.096102276483446047e-01,1.082878920124596966e-02
3.309302999999999884e+03,6.084938160409247843e-01,1.725436760415210991e-02
3.311231999999999971e+03,6.073668353964531974e-01,1.144905577683519304e-02
3.313159999999999854e+03,6.062304541759431231e-01,-2.889906950715337430e-03
3.315089000000000397e+03,6.050834935607003473e-01,-3.044538544468400332e-03
3.317017000000000280e+03,6.039271427270982429e-01,2.129434796475981884e-03
3.318945999999999913e+03,6.027602021410807254e-01,-1.129629736445347810e-02
3.320875000000000000e+03,6.015832689795868049e-01,-1.514641629756474650e-02
3.322802999999999884e+03,6.003969611375996607e-01,-6.272904002366797016e-04
3.324730999999999767e+03,5.992006710778170486e-01,8.436521687680054171e-03
3.326659999999999854e+03,5.979937705502518241e-01,1.578347477360053652e-02
3.328587999999999738e+03,5.967775108773789583e-01,1.917008535078656983e-02
3.330517000000000280e+03,5.955506303790407685e-01,1.469361138939384581e-02
3.332445000000000164e+03,5.943144010930758725e-01,1.352820109590258113e-04
3.334374000000000251e+03,5.930675406239629410e-01,-6.857925536622788698e-03
3.336302000000000135e+03,5.918113417249077912e-01,7.890312317448300306e-03
3.338230999999999767e+03,5.905445012850254471e-01,7.019264366543209732e-03
3.340159000000000106e+03,5.892683327728782672e-01,6.956740654235682442e-03
3.342087999999999738e+03,5.879815123622176287e-01,1.187086049293761825e-02
3.344015999999999622e+03,5.866853742369837477e-01,1.549270583721651384e-02
3.345945000000000164e+03,5.853785738555501439e-01,1.641459355827001865e-02
3.347873000000000047e+03,5.840624661172224563e-01,1.466453960236369092e-02
3.349802000000000135e+03,5.827356857650141109e-01,1.218547670213721013e-02
3.351730000000000018e+03,5.813996084135979459e-01,1.403554385104910374e-02
3.353659000000000106e+03,5.800528480906166351e-01,6.767371417808698553e-03
3.355586999999999989e+03,5.786968011261102163e-01,-1.503262712134967316e-03
3.357515999999999622e+03,5.773300608323541638e-01,6.335111528134484971e-03
3.359444000000000415e+03,5.759540442547539385e-01,1.228525084495246666e-02
3.361373000000000047e+03,5.745673239902284735e-01,1.080508745110453361e-04
3.363302000000000135e+03,5.731706111502177237e-01,-1.018096823786618366e-02
3.365230000000000018e+03,5.717646375642342349e-01,-1.120581858139257925e-02
3.367157999999999902e+03,5.703486817604552783e-01,-7.627241043188126568e-03
3.369086999999999989e+03,5.689220015543767772e-01,5.232427259968863709e-03
3.371014999999999873e+03,5.674860761375075668e-01,1.116982121911624937e-02
3.372944000000000415e+03,5.660394159606578768e-01,9.392515304533777254e-04
3.374872000000000298e+03,5.645835209306966362e-01,1.043812074498773335e-02
3.376800999999999931e+03,5.631168807830722045e-01,5.242989366873951340e-03
3.378729000000000269e+03,5.616410161400224865e-01,3.672788157396356112e-03
3.380657999999999902e+03,5.601543960216250895e-01,6.545248436560013872e-03
3.382585999999999785e+03,5.586585617654815650e-01,-6.932638129679924432e-03
3.384514999999999873e+03,5.571519616763094263e-01,-1.237842635400254743e-02
3.386442999999999756e+03,5.556361578070756480e-01,1.848770311644765130e-03
3.388372000000000298e+03,5.541095777471305439e-01,3.849921402661271586e-03
3.390300000000000182e+03,5.525738042648082882e-01,-8.231556622204871942e-03
3.392229000000000269e+03,5.510272442340866661e-01,-1.224381557432452361e-02
3.394157000000000153e+03,5.494715011386723802e-01,-8.434246539816170340e-03
3.396085999999999785e+03,5.479049611371831219e-01,-7.237933775921634449e-03
3.398014000000000124e+03,5.463292484286768058e-01,-5.346098019030742776e-03
3.399942999999999756e+03,5.447427284564092531e-01,-4.282842848123413759e-03
3.401870999999999640e+03,5.431470461348144596e-01,-9.465514679412034837e-04
3.403800000000000182e+03,5.415405461917739416e-01,1.132388416840535150e-02
3.405728000000000065e+03,5.399248942570888943e-01,8.475167576270203895e-03
3.407657000000000153e+03,5.382984143432718582e-01,2.362429682080113835e-03
3.409585000000000036e+03,5.366627927954947808e-01,7.548915452073590160e-04
3.411514000000000124e+03,5.350163329109083321e-01,9.613439851497096456e-03
3.413442000000000007e+03,5.333607417500410008e-01,1.167944993337255433e-02
3.415370999999999640e+03,5.316943018946798105e-01,-2.243072956667591100e-03
3.417299000000000433e+03,5.300187411207186727e-01,-4.529484666861760545e-03
3.419228000000000065e+03,5.283323212945862934e-01,-2.426677793394316218e-02
3.421155999999999949e+03,5.266367909075366782e-01,-3.377931680025558769e-02
3.423085000000000036e+03,5.249303911106260045e-01,-1.183563148780897301e-02
3.425012999999999920e+03,5.232148911104879119e-01,1.022922699122807977e-02
3.426942000000000007e+03,5.214885113428024965e-01,1.142693153863238997e-02
3.428869999999999891e+03,5.197530417295723737e-01,1.756465149389319080e-03
3.430799000000000433e+03,5.180066819911157694e-01,-9.305182532157507680e-03
3.432727000000000317e+03,5.162512427647953928e-01,-1.475796714259725029e-02
3.434655999999999949e+03,5.144849030555640468e-01,-6.241826969299868466e-04
3.436584000000000287e+03,5.127094942161551927e-01,5.800321829602106405e-03
3.438512999999999920e+03,5.109231745361491051e-01,-1.849129088630219186e-03
3.440440999999999804e+03,5.091277960836482208e-01,4.115453910775723756e-04
3.442369999999999891e+03,5.073214964328673915e-01,6.421740543481435637e-03
3.444297999999999774e+03,5.055061483672744771e-01,1.060144167755461275e-02
3.446227000000000317e+03,5.036798687457224588e-01,-6.490194916691338634e-03
3.448155000000000200e+03,5.018445510670392906e-01,-1.680126771567125310e-02
3.450084000000000287e+03,4.999982914747125307e-01,-8.342703284883734582e-03
3.452012000000000171e+03,4.981430041829391087e-01,1.233929601801908582e-02
3.453940999999999804e+03,4.962767646198411597e-01,2.072509038093151013e-02
3.455869000000000142e+03,4.944015077149757076e-01,1.795357034964051302e-02
3.457797999999999774e+03,4.925152881811012406e-01,2.331559758176804387e-02
3.459725999999999658e+03,4.906200616631473110e-01,2.055940966163238848e-02
3.461655000000000200e+03,4.887138621584998788e-01,4.752670535889125247e-03
3.463583000000000084e+03,4.867986660274539190e-01,2.103562057016561404e-02
3.465512000000000171e+03,4.848724865520299687e-01,2.854071487013754016e-02
3.467440000000000055e+03,4.829373208078937552e-01,2.598291415887099554e-02
3.469369000000000142e+03,4.809911613617003923e-01,2.237643795813260006e-02
3.471297000000000025e+03,4.790360260044739249e-01,2.404636694652340090e-02
3.473225999999999658e+03,4.770698865875040440e-01,3.090352506808469180e-02
3.475154000000000451e+03,4.750947816171837701e-01,3.494850173418462269e-02
3.477083000000000084e+03,4.731086622294444766e-01,5.748648385186627685e-02
3.479010999999999967e+03,4.711135876460357252e-01,6.490743569605794683e-02
3.480940000000000055e+03,4.691074882875181373e-01,5.211758513959607875e-02
3.482867999999999938e+03,4.670924440910191322e-01,3.531132774388523465e-02
3.484797000000000025e+03,4.650663647617285790e-01,3.865368470495877951e-02
3.486724999999999909e+03,4.630313509521375437e-01,4.604578616333632191e-02
3.488654000000000451e+03,4.609852916520740251e-01,5.348912479559975175e-02
3.490582000000000335e+03,4.589303082293945124e-01,6.678927748709972967e-02
3.492510999999999967e+03,4.568642689585562522e-01,6.167414501578272201e-02
3.494439000000000306e+03,4.547893159227864857e-01,6.370117719825274527e-02
3.496367999999999938e+03,4.527032966811752601e-01,7.320719953153154158e-02
3.498295999999999822e+03,4.506083740323134634e-01,7.743382723527036937e-02
3.500224999999999909e+03,4.485023748199274962e-01,7.528259967381223383e-02
3.502152999999999793e+03,4.463874825579736694e-01,6.216948142409495226e-02
3.504082000000000335e+03,4.442615033748147368e-01,5.156010738419003481e-02
3.506010000000000218e+03,4.421266414997724326e-01,7.427774866872360882e-02
3.507939000000000306e+03,4.399806823458387584e-01,7.006105517155192253e-02
3.509867000000000189e+03,4.378258508577044239e-01,5.587332985028781174e-02
3.511795999999999822e+03,4.356599117330013371e-01,8.663719755746179807e-02
3.513724000000000160e+03,4.334851106317749725e-01,1.110897850244321194e-01
3.515652999999999793e+03,4.312991915362935913e-01,1.264462096076235387e-01
3.517580999999999676e+03,4.291044208219805256e-01,1.406598394964608811e-01
3.519510000000000218e+03,4.268985217557261791e-01,1.365378671761028340e-01
3.521438000000000102e+03,4.246837814283193069e-01,1.286289407853151712e-01
3.523367000000000189e+03,4.224579023912902187e-01,1.258470906524566946e-01
3.525295000000000073e+03,4.202231924507948690e-01,1.382031485601811216e-01
3.527224000000000160e+03,4.179773334429945919e-01,1.183853192081112393e-01
3.529152000000000044e+03,4.157226538894072121e-01,1.169122201251242554e-01
3.531080999999999676e+03,4.134568149108304169e-01,1.276855563984911068e-01
3.533009000000000015e+03,4.111821657441527833e-01,1.405491683105697387e-01
3.534938000000000102e+03,4.088963467948012465e-01,1.310147677514963416e-01
3.536865999999999985e+03,4.066017280150369118e-01,1.244486661726280641e-01
3.538795000000000073e+03,4.042959290949106332e-01,1.512621169709424951e-01
3.540722999999999956e+03,4.019813407020524920e-01,1.554865832429157546e-01
3.542652000000000044e+03,3.996555618111532482e-01,1.181462622729403389e-01
3.544579999999999927e+03,3.973210038052048532e-01,7.167652286043169063e-02
3.546509000000000015e+03,3.949752449435361967e-01,6.447443816049847065e-02
3.548436999999999898e+03,3.926207173244957715e-01,1.061410696595819214e-01
3.550365999999999985e+03,3.902549784920488207e-01,1.198632778072250549e-01
3.552294000000000324e+03,3.878804812599199181e-01,9.370786315189039151e-02
3.554222999999999956e+03,3.854947624567017783e-01,1.176154555058894768e-01
3.556150999999999840e+03,3.831002956114808455e-01,1.394750637949189187e-01
3.558079999999999927e+03,3.806945968374861877e-01,1.494638511452006657e-01
3.560007999999999811e+03,3.782801603791750011e-01,1.707413267131114853e-01
3.561936999999999898e+03,3.758544816344109307e-01,1.820014466388928387e-01
3.563864999999999782e+03,3.734200755630077140e-01,1.458031428633337345e-01
3.565794000000000324e+03,3.709744168474653492e-01,7.948237709286565256e-02
3.567722000000000207e+03,3.685200411629718786e-01,9.887290983409147138e-02
3.569650999999999840e+03,3.660544024766583249e-01,2.103615814466681666e-01
3.571579000000000178e+03,3.635800571790746005e-01,2.697365296195031181e-01
3.573507999999999811e+03,3.610944385219880814e-01,2.619191648170133835e-01
3.575435999999999694e+03,3.586001236113141033e-01,2.297303756930604290e-01
3.577364999999999782e+03,3.560945249834510662e-01,2.077677412091600839e-01
3.579292999999999665e+03,3.535802404596850579e-01,1.632909915699956027e-01
3.581222000000000207e+03,3.510546618610508318e-01,1.281407315536966518e-01
3.583150000000000091e+03,3.485204077241945697e-01,1.122540550984985064e-01
3.585079000000000178e+03,3.459748491547873783e-01,6.937064473916865204e-02
3.587007000000000062e+03,3.434206254048408624e-01,-1.519756156189777663e-02
3.588935999999999694e+03,3.408550868646589294e-01,3.261608333166221563e-02
3.590864000000000033e+03,3.382808935016203833e-01,7.317141752017630729e-02
3.592792999999999665e+03,3.356953749906637086e-01,3.765212848746268826e-02
3.594720999999999549e+03,3.331012120145349087e-01,2.384112837810703489e-02
3.596650000000000091e+03,3.304957135328052686e-01,4.560801192708097140e-02
3.598577999999999975e+03,3.278815809435862150e-01,5.145448336310720627e-02
3.600507000000000062e+03,3.252561024910818333e-01,5.377543252205829738e-02
3.602434999999999945e+03,3.226220002887725258e-01,8.105321999256953625e-02
3.604364000000000033e+03,3.199765418654951787e-01,8.756403627641273779e-02
3.606291999999999916e+03,3.173224700500956175e-01,3.222923809644950843e-02
3.608220999999999549e+03,3.146570316560453051e-01,-1.648266158339084519e-02
3.610149000000000342e+03,3.119829902275537137e-01,4.579847923628976858e-03
3.612077999999999975e+03,3.092975718627286597e-01,-3.568711142370117884e-03
3.614005999999999858e+03,3.066035608211485908e-01,-2.085769592703790032e-02
3.615934999999999945e+03,3.038981624855470187e-01,6.749541950996862383e-03
3.617862999999999829e+03,3.011841818308749197e-01,1.019404503953103003e-03
