wavenumber (/cm),baseline value (/cm),baseline-subtracted absorbance (/cm),
3.290019000000000233e+03,3.447143522833222562e-01,-4.440892098500626162e-15
3.291947000000000116e+03,3.440945152605117130e-01,1.462800676114595078e-03
3.293875000000000000e+03,3.434682189300772848e-01,-4.954323503941759910e-04
3.295804000000000087e+03,3.428351334232555558e-01,2.215658748226267960e-03
3.297731999999999971e+03,3.421959151273039623e-01,-1.717816338860367331e-03
3.299660999999999603e+03,3.415499009527049878e-01,-3.569379051493404287e-03
3.301589000000000397e+03,3.408977606912362290e-01,3.651726727216697554e-03
3.303518000000000029e+03,3.402388178488564563e-01,6.333316354312223950e-03
3.305447000000000116e+03,3.395734089965873892e-01,5.254829586823606125e-03
3.307375000000000000e+03,3.389018841117152903e-01,5.523278982413337701e-03
3.309302999999999884e+03,3.382238999192175299e-01,4.403313501099348493e-03
3.311231999999999971e+03,3.375390997412779370e-01,9.303770715385628609e-03
3.313159999999999854e+03,3.368481935832647878e-01,1.544332552204741305e-02
3.315089000000000397e+03,3.361504647375443966e-01,2.072987077037735659e-02
3.317017000000000280e+03,3.354466366140158584e-01,1.459558146613326723e-02
3.318945999999999913e+03,3.347359791005164453e-01,1.367063786127292735e-02
3.320875000000000000e+03,3.340188555771277379e-01,2.265299903610618060e-02
3.322802999999999884e+03,3.332956428301940832e-01,3.291616518471740527e-02
3.324730999999999767e+03,3.325659707756329908e-01,3.495364711812287695e-02
3.326659999999999854e+03,3.318294559265737576e-01,3.922247324397609702e-02
3.328587999999999738e+03,3.310868619064990526e-01,4.419955002267150768e-02
3.330517000000000280e+03,3.303374183896590210e-01,4.235810817138480067e-02
3.332445000000000164e+03,3.295819024040671508e-01,4.133820943190674724e-02
3.334374000000000251e+03,3.288195302194480973e-01,5.421525076843636270e-02
3.336302000000000135e+03,3.280510922683426145e-01,5.491696924144306990e-02
3.338230999999999767e+03,3.272757914159445392e-01,4.402225145451210686e-02
3.340159000000000106e+03,3.264944314993218910e-01,3.759195247085517222e-02
3.342087999999999738e+03,3.257062019791447938e-01,4.148688282980206310e-02
3.344015999999999622e+03,3.249119200970067567e-01,4.150585250317961883e-02
3.345945000000000164e+03,3.241107619090470848e-01,5.237135365479261839e-02
3.347873000000000047e+03,3.233035580613936588e-01,6.631000205044235152e-02
3.349802000000000135e+03,3.224894712056567414e-01,7.553695004317828587e-02
3.351730000000000018e+03,3.216693453924879265e-01,7.821659123379354206e-02
3.353659000000000106e+03,3.208423298689702108e-01,8.806592735376977954e-02
3.355586999999999989e+03,3.200092820902860069e-01,1.013995902303104768e-01
3.357515999999999622e+03,3.191693378989892693e-01,1.102237096312996267e-01
3.359444000000000415e+03,3.183233681547879002e-01,1.030649915842615227e-01
3.361373000000000047e+03,3.174704952957103643e-01,9.640594459245366288e-02
3.363302000000000135e+03,3.166111564267417577e-01,8.239393211007095541e-02
3.365230000000000018e+03,3.157458020591370484e-01,7.091923055968868406e-02
3.367157999999999902e+03,3.148739883839066778e-01,5.902312252010077920e-02
3.369086999999999989e+03,3.139952581892710981e-01,4.358377256562173674e-02
3.371014999999999873e+03,3.131105225485235621e-01,2.248174212994802357e-02
3.372944000000000415e+03,3.122188636861054079e-01,6.953550106998052094e-03
3.374872000000000298e+03,3.113212060798442593e-01,-2.787282501093113485e-03
3.376800999999999931e+03,3.104166185496470831e-01,-1.470515536232180898e-02
3.378729000000000269e+03,3.095060389778687693e-01,-2.218367178308777721e-02
3.380657999999999902e+03,3.085885227798925712e-01,-1.986354607905377323e-02
3.382585999999999785e+03,3.076650212425988684e-01,-2.941236513821859910e-02
3.384514999999999873e+03,3.067345763768418720e-01,-3.283308523052314021e-02
3.386442999999999756e+03,3.057981528740345567e-01,-3.437243060003641881e-02
3.388372000000000298e+03,3.048547793404985384e-01,-3.379252398169146909e-02
3.390300000000000182e+03,3.039054338721740578e-01,-3.866554570814795255e-02
3.392229000000000269e+03,3.029491316708572413e-01,-3.557904779387677241e-02
3.394157000000000153e+03,3.019868642370173717e-01,-3.113103944670980727e-02
3.396085999999999785e+03,3.010176333679215332e-01,-2.763124007807993276e-02
3.398014000000000124e+03,3.000424439685662747e-01,-3.133508143361751763e-02
3.399942999999999756e+03,2.990602844316914144e-01,-3.828376998621146887e-02
3.401870999999999640e+03,2.980721730668189906e-01,-3.783023457660461553e-02
3.403800000000000182e+03,2.970770848621651083e-01,-3.264055177735614155e-02
3.405728000000000065e+03,2.960760515317790720e-01,-2.732889402944915780e-02
3.407657000000000153e+03,2.950680346593426151e-01,-2.986197687742275786e-02
3.409585000000000036e+03,2.940540793634411898e-01,-3.785985755542625730e-02
3.411514000000000124e+03,2.930331338232257110e-01,-3.240610679619870815e-02
3.413442000000000007e+03,2.920062565618071204e-01,-2.988500772676516704e-02
3.415370999999999640e+03,2.909723823538126197e-01,-2.469996856070916236e-02
3.417299000000000433e+03,2.899325831268804166e-01,-2.535448433843678906e-02
3.419228000000000065e+03,2.888857802511051176e-01,-2.549165163973510229e-02
3.421155999999999949e+03,2.878330590586575255e-01,-1.385803575949628996e-02
3.423085000000000036e+03,2.867733275151014283e-01,-1.232924550205394265e-02
3.425012999999999920e+03,2.857076843571384472e-01,-2.502567130960814401e-02
3.426942000000000007e+03,2.846350241458033281e-01,-1.751368211411641340e-02
3.428869999999999891e+03,2.835564590223231818e-01,-2.844529851773303086e-03
3.430799000000000433e+03,2.824708701432072644e-01,5.988409471934796890e-04
3.432727000000000317e+03,2.813793830542135055e-01,-6.987699643157263552e-05
3.434655999999999949e+03,2.802808655073203425e-01,6.214754250368437205e-03
3.436584000000000287e+03,2.791764564528094184e-01,3.266190364730192641e-04
3.438512999999999920e+03,2.780650102381354571e-01,-5.074609492562331958e-03
3.440440999999999804e+03,2.769476792181091440e-01,2.561418443326468619e-04
3.442369999999999891e+03,2.758233043356543845e-01,1.283829864663826870e-02
3.444297999999999774e+03,2.746930513501126825e-01,1.179846775519954871e-02
3.446227000000000317e+03,2.735557477998789011e-01,1.146531464187316995e-02
3.448155000000000200e+03,2.724125728488200338e-01,1.450149984456300389e-02
3.450084000000000287e+03,2.712623406308090068e-01,2.251706291066346566e-02
3.452012000000000171e+03,2.701062437142347505e-01,2.658443662127318863e-02
3.453940999999999804e+03,2.689430828284429253e-01,2.768674009793170576e-02
3.455869000000000142e+03,2.677740639463532801e-01,2.070319607228610082e-02
3.457797999999999774e+03,2.665979743927806567e-01,2.704703958671605957e-02
3.459725999999999658e+03,2.654160335451756225e-01,4.189831873814220398e-02
3.461655000000000200e+03,2.642270153238222008e-01,5.237074795669971472e-02
3.463583000000000084e+03,2.630321525107035541e-01,5.857763313701314090e-02
3.465512000000000171e+03,2.618302056215711104e-01,6.576261823676998741e-02
3.467440000000000055e+03,2.606224208429352984e-01,6.181569658483732077e-02
3.469369000000000142e+03,2.594075452860238329e-01,7.507362899170216819e-02
3.471297000000000025e+03,2.581868385418726319e-01,9.266702911889157512e-02
3.473225999999999658e+03,2.569590343171803681e-01,9.139259662410575968e-02
3.475154000000000451e+03,2.557254056075120019e-01,9.870823838130438066e-02
3.477083000000000084e+03,2.544846727150407162e-01,1.088909656819769811e-01
3.479010999999999967e+03,2.532381220398587374e-01,1.115382992089762881e-01
3.480940000000000055e+03,2.519844604796084298e-01,1.249669467897298603e-01
3.482867999999999938e+03,2.507249878389110620e-01,1.330321883027478225e-01
3.484797000000000025e+03,2.494583976108781798e-01,1.376179211216475018e-01
3.486724999999999909e+03,2.481860030046654231e-01,1.356472961565647894e-01
3.488654000000000451e+03,2.469064841088535189e-01,1.372735065714819624e-01
3.490582000000000335e+03,2.456211675371253733e-01,1.366046386138531910e-01
3.492510999999999967e+03,2.443287199735326709e-01,1.335541784421243605e-01
3.494439000000000306e+03,2.430304814362891364e-01,1.390461541648292387e-01
3.496367999999999938e+03,2.417251052049191884e-01,1.489784083085943234e-01
3.498295999999999822e+03,2.404139447021584886e-01,1.545267356333494546e-01
3.500224999999999909e+03,2.390956398030077423e-01,1.615805764132084987e-01
3.502152999999999793e+03,2.377715573347334299e-01,1.683582935506346967e-01
3.504082000000000335e+03,2.364403237678001091e-01,1.740216426814077399e-01
3.506010000000000218e+03,2.351033193340104077e-01,1.819039127256354416e-01
3.507939000000000306e+03,2.337591570992998413e-01,1.942212995642602635e-01
3.509867000000000189e+03,2.324092306999929747e-01,2.098781225152912544e-01
3.511795999999999822e+03,2.310521397975016100e-01,2.172136402584163850e-01
3.513724000000000160e+03,2.296892914326811308e-01,2.251748856409442334e-01
3.515652999999999793e+03,2.283192718624107442e-01,2.481454345681577411e-01
3.517580999999999676e+03,2.269435015320748761e-01,2.673040380764992174e-01
3.519510000000000218e+03,2.255605532940236913e-01,2.905926899492196069e-01
3.521438000000000102e+03,2.241718609981706578e-01,3.160350448732179851e-01
3.523367000000000189e+03,2.227759840923404511e-01,3.379365974547238194e-01
3.525295000000000073e+03,2.213743698309720287e-01,3.277848659565396616e-01
3.527224000000000160e+03,2.199655642573610237e-01,3.195573061993025599e-01
3.529152000000000044e+03,2.185510280304772124e-01,3.095670148399795041e-01
3.531080999999999676e+03,2.171292937890889618e-01,2.897934089136137148e-01
3.533009000000000015e+03,2.157018355966897616e-01,2.726244551768424174e-01
3.534938000000000102e+03,2.142671726875189364e-01,2.724391367253422014e-01
3.536865999999999985e+03,2.128267925296043472e-01,2.705193491292959274e-01
3.538795000000000073e+03,2.113792009526545002e-01,2.697297179662644373e-01
3.540722999999999956e+03,2.099258988292227457e-01,2.837964776852227589e-01
3.542652000000000044e+03,2.084653785844938767e-01,2.998586475105666782e-01
3.544579999999999927e+03,2.069991544955485097e-01,3.034836134448056777e-01
3.546509000000000015e+03,2.055257055830406188e-01,2.898543689742753005e-01
3.548436999999999898e+03,2.040465595285780864e-01,2.646742419625682241e-01
3.550365999999999985e+03,2.025601819482893973e-01,2.589187313788308131e-01
3.552294000000000324e+03,2.010681139283114760e-01,2.601328562487621454e-01
3.554222999999999956e+03,1.995688076802437649e-01,2.647571009870442471e-01
3.556150999999999840e+03,1.980638176947504547e-01,2.902506464245412365e-01
3.558079999999999927e+03,1.965515827789019454e-01,3.345236455528781683e-01
3.560007999999999811e+03,1.950336708278932463e-01,3.784295164973630055e-01
3.561936999999999898e+03,1.935085072442657150e-01,4.116216884686886290e-01
3.563864999999999782e+03,1.919776733277416270e-01,4.219386360851195006e-01
3.565794000000000324e+03,1.904395810763332975e-01,4.374582754008334851e-01
3.567722000000000207e+03,1.888958251942938205e-01,4.453015652996483720e-01
3.569650999999999840e+03,1.873448042751064690e-01,4.632316169737286105e-01
3.571579000000000178e+03,1.857881264275498268e-01,4.960930478501761609e-01
3.573507999999999811e+03,1.842241768405834534e-01,4.923017318267044473e-01
3.575435999999999694e+03,1.826545770275114222e-01,4.140687221337187029e-01
3.577364999999999782e+03,1.810776987727660270e-01,3.201212481051464165e-01
3.579292999999999665e+03,1.794951769941803832e-01,2.405871342826136350e-01
3.581222000000000207e+03,1.779053700716506370e-01,1.707718899469886642e-01
3.583150000000000091e+03,1.763099263275496043e-01,1.152263271673246159e-01
3.585079000000000178e+03,1.747071907372426125e-01,9.121526965418330635e-02
3.587007000000000062e+03,1.730988250276244145e-01,8.438691588570268465e-02
3.588935999999999694e+03,1.714831607695384008e-01,5.844787371322021641e-02
3.590864000000000033e+03,1.698618730944048139e-01,3.435527508826058396e-02
3.592792999999999665e+03,1.682332801685380019e-01,4.003251666277607423e-02
3.594720999999999549e+03,1.665990705278890260e-01,4.631332462588541588e-02
3.596650000000000091e+03,1.649575489342431922e-01,4.578084808346416512e-02
3.598577999999999975e+03,1.633104173280806037e-01,4.229098062159319937e-02
3.600507000000000062e+03,1.616559670666521953e-01,3.085885119989018044e-02
3.602434999999999945e+03,1.599959134949742179e-01,1.355804736243493291e-02
3.604364000000000033e+03,1.583285345657667875e-01,1.124154931121368328e-02
3.606291999999999916e+03,1.566555590285716448e-01,2.443782400963895318e-02
3.608220999999999549e+03,1.549752514315851926e-01,2.856212042302808118e-02
3.610149000000000342e+03,1.532893539288764373e-01,-1.216940135772948128e-03
3.612077999999999975e+03,1.515961176641109631e-01,-1.094448672282488655e-02
3.614005999999999858e+03,1.498972981958832662e-01,-7.258714784886044491e-03
3.615934999999999945e+03,1.481911332633387701e-01,-6.174637457187770462e-03
3.617862999999999829e+03,1.464793918295956843e-01,-3.020864336585438181e-03
