wavenumber (/cm),baseline value (/cm),baseline-subtracted absorbance (/cm),
3.290019000000000233e+03,5.199068033550924284e-02,-1.332267629550187849e-15
3.291947000000000116e+03,5.163281639746930551e-02,1.273717428286502695e-02
3.293875000000000000e+03,5.127718275977644069e-02,2.102477436976757375e-02
3.295804000000000087e+03,5.092359670064094956e-02,2.322085809898677411e-02
3.297731999999999971e+03,5.057242482043466936e-02,1.506224433147540509e-02
3.299660999999999603e+03,5.022330283297637976e-02,1.456607274950183495e-02
3.301589000000000397e+03,4.987659271025712826e-02,3.975224624318762778e-03
3.303518000000000029e+03,4.953193479447559611e-02,-4.239297329424296379e-03
3.305447000000000116e+03,4.918950949322953292e-02,1.524385490565238754e-02
3.307375000000000000e+03,4.884949258513904269e-02,1.384389045307132804e-02
3.309302999999999884e+03,4.851170597739562496e-02,1.930190073276216722e-02
3.311231999999999971e+03,4.817597620496760769e-02,3.051740683324277725e-02
3.313159999999999854e+03,4.784265135471077457e-02,2.666993019235341933e-02
3.315089000000000397e+03,4.751138565395951474e-02,8.854877160578311646e-03
3.317017000000000280e+03,4.718252256119015442e-02,-1.462520662456423537e-02
3.318945999999999913e+03,4.685572093211565203e-02,8.677363876831378775e-03
3.320875000000000000e+03,4.653115191757706270e-02,2.580808386993460601e-02
3.322802999999999884e+03,4.620898203943690774e-02,1.972484834266952092e-02
3.324730999999999767e+03,4.588904246164160483e-02,7.425030231740681330e-03
3.326659999999999854e+03,4.557116897592150551e-02,5.876174919698495813e-03
3.328587999999999738e+03,4.525569115561456357e-02,1.583004975771373779e-02
3.330517000000000280e+03,4.494228174157033351e-02,6.489218724412992856e-03
3.332445000000000164e+03,4.463126567875086437e-02,2.376190052841842260e-03
3.334374000000000251e+03,4.432232033638427993e-02,6.855685255414023516e-03
3.336302000000000135e+03,4.401576603105095131e-02,5.612379355715013673e-03
3.338230999999999767e+03,4.371128476036201249e-02,-1.303083455609588270e-03
3.340159000000000106e+03,4.340919221251660076e-02,-7.463246266571132992e-03
3.342087999999999738e+03,4.310917501350353120e-02,1.625242796878900720e-02
3.344015999999999622e+03,4.281154422314603636e-02,2.285201588868979172e-02
3.345945000000000164e+03,4.251599109580928015e-02,1.241597535339833414e-02
3.347873000000000047e+03,4.222282206293925810e-02,-5.946028027524086212e-03
3.349802000000000135e+03,4.193173300728014752e-02,-1.848438911166150334e-02
3.351730000000000018e+03,4.164302573189626600e-02,6.027058145084751573e-03
3.353659000000000106e+03,4.135640074791435694e-02,3.414126933596239866e-02
3.355586999999999989e+03,4.107215523001883639e-02,4.182905632636479965e-02
3.357515999999999622e+03,4.078999431771324069e-02,5.654364967110181439e-02
3.359444000000000415e+03,4.051021055730474885e-02,4.973396465238755226e-02
3.361373000000000047e+03,4.023251371667635468e-02,3.900140986207434324e-02
3.363302000000000135e+03,3.995704949058387356e-02,1.872980978248195427e-02
3.365230000000000018e+03,3.968395894480325481e-02,-2.716577770525585578e-03
3.367157999999999902e+03,3.941309869936970856e-02,-9.097162073090192536e-03
3.369086999999999989e+03,3.914433000209482927e-02,-1.149847725279462551e-02
3.371014999999999873e+03,3.887793151414786763e-02,-1.866823906307590875e-02
3.372944000000000415e+03,3.861362688855063396e-02,-1.007215438156094933e-02
3.374872000000000298e+03,3.835169015809070103e-02,1.524570033585215256e-02
3.376800999999999931e+03,3.809184960417066890e-02,2.953256791679947924e-02
3.378729000000000269e+03,3.783437463119865285e-02,2.431008016842861608e-02
3.380657999999999902e+03,3.757899814895448998e-02,1.759341564414906856e-02
3.382585999999999785e+03,3.732598493347039081e-02,-2.892620534588719039e-03
3.384514999999999873e+03,3.707507252290342947e-02,4.257639499462673172e-03
3.386442999999999756e+03,3.682652106490547084e-02,1.788456933584026132e-02
3.388372000000000298e+03,3.658007272601571103e-02,2.432207079681658612e-02
3.390300000000000182e+03,3.633598302550566927e-02,1.299393309751373238e-02
3.392229000000000269e+03,3.609399875829222282e-02,1.283051195932127797e-02
3.394157000000000153e+03,3.585437081527009795e-02,2.570014922200813956e-02
3.396085999999999785e+03,3.561685061973385302e-02,2.483422114168121198e-02
3.398014000000000124e+03,3.538168443419831277e-02,1.434711332908111814e-02
3.399942999999999756e+03,3.514862831033882529e-02,1.030151148462765676e-02
3.401870999999999640e+03,3.491792388229120192e-02,3.439951234204041697e-03
3.403800000000000182e+03,3.468933183010802779e-02,4.112159316211450033e-03
3.405728000000000065e+03,3.446308915954787722e-02,2.111002173163178952e-03
3.407657000000000153e+03,3.423896117904234870e-02,2.647119725525293177e-02
3.409585000000000036e+03,3.401718026596878275e-02,5.966781507419760544e-02
3.411514000000000124e+03,3.379751635714001168e-02,5.161348084696104621e-02
3.413442000000000007e+03,3.358019720155436261e-02,2.203303672202494568e-02
3.415370999999999640e+03,3.336499736440234898e-02,2.119791037091900421e-02
3.417299000000000433e+03,3.315213996630372861e-02,2.932409488924125895e-02
3.419228000000000065e+03,3.294140420082891652e-02,3.709960232293552096e-02
3.421155999999999949e+03,3.273300856021776895e-02,3.726699143978251527e-02
3.423085000000000036e+03,3.252673686641971429e-02,1.939311401894849851e-02
3.425012999999999920e+03,3.232280298329559542e-02,-1.169028519177217618e-03
3.426942000000000007e+03,3.212099536117474230e-02,1.089484806846208187e-02
3.428869999999999891e+03,3.192152323553809623e-02,3.238695765914911817e-02
3.430799000000000433e+03,3.172417968509355646e-02,4.456845777995743774e-02
3.432727000000000317e+03,3.152916931694482727e-02,2.807008510989605909e-02
3.434655999999999949e+03,3.133628983817704494e-02,3.360965610776833756e-02
3.436584000000000287e+03,3.114574122751490037e-02,3.952713854881340083e-02
3.438512999999999920e+03,3.095732582042431957e-02,2.034183540977041460e-02
3.440440999999999804e+03,3.077123896725009189e-02,4.236774290777844953e-05
3.442369999999999891e+03,3.058728763183671262e-02,-2.456812328948121404e-03
3.444297999999999774e+03,3.040566253614906955e-02,2.671690679135085844e-03
3.446227000000000317e+03,3.022617527241289181e-02,1.521184895871430243e-02
3.448155000000000200e+03,3.004901193421227745e-02,3.034800577315044379e-02
3.450084000000000287e+03,2.987398874215285716e-02,4.719124890929160543e-02
3.452012000000000171e+03,2.970128716144060377e-02,3.667336335113979828e-02
3.453940999999999804e+03,2.953072804105749682e-02,3.864448165139355851e-02
3.455869000000000142e+03,2.936248821783227214e-02,6.240172427051771109e-02
3.457797999999999774e+03,2.919639316912681082e-02,5.315029834997764269e-02
3.459725999999999658e+03,2.903261510338817075e-02,5.435881080527815712e-02
3.461655000000000200e+03,2.887098412635946687e-02,6.288577263039751841e-02
3.463583000000000084e+03,2.871166781810874369e-02,3.139550832355020304e-02
3.465512000000000171e+03,2.855450091275679725e-02,3.518268454856654515e-02
3.467440000000000055e+03,2.839964636199354686e-02,4.805608523166871038e-02
3.469369000000000142e+03,2.824694352831835786e-02,7.731503224055336077e-02
3.471297000000000025e+03,2.809655073504213618e-02,9.035265709347584107e-02
3.473225999999999658e+03,2.794831197304370463e-02,7.723248951810157692e-02
3.475154000000000451e+03,2.780238093725495574e-02,5.264403099191428126e-02
3.477083000000000084e+03,2.765860624693372571e-02,5.162843941942130144e-02
3.479010999999999967e+03,2.751713696863244962e-02,6.992461512829262205e-02
3.480940000000000055e+03,2.737782634998797704e-02,8.874426125485790351e-02
3.482867999999999938e+03,2.724081882917372965e-02,8.223821192571945105e-02
3.484797000000000025e+03,2.710597228220601451e-02,8.130222902254624628e-02
3.486724999999999909e+03,2.697342651887968401e-02,7.381035726490381421e-02
3.488654000000000451e+03,2.684304404358872631e-02,8.868444896666272115e-02
3.490582000000000335e+03,2.671496003774986860e-02,1.175795413601994355e-01
3.492510999999999967e+03,2.658904163413566835e-02,1.067529900527235398e-01
3.494439000000000306e+03,2.646541938578383935e-02,1.004693429627714352e-01
3.496367999999999938e+03,2.634396505384728471e-02,1.057007693357148170e-01
3.498295999999999822e+03,2.622480456298248441e-02,9.806969683496724599e-02
3.500224999999999909e+03,2.610781430272224313e-02,9.892480452300000948e-02
3.502152999999999793e+03,2.599311556934535972e-02,8.930418172795251408e-02
3.504082000000000335e+03,2.588058938076187587e-02,8.496284025577072185e-02
3.506010000000000218e+03,2.577035240487202117e-02,1.027916233640011612e-01
3.507939000000000306e+03,2.566229028796618294e-02,1.197272716878008403e-01
3.509867000000000189e+03,2.555651506956291286e-02,1.047109593013590967e-01
3.511795999999999822e+03,2.545291702433338799e-02,9.297765147520120621e-02
3.513724000000000160e+03,2.535160356341892296e-02,1.063510991392830896e-01
3.515652999999999793e+03,2.525246958986615553e-02,1.316245108388378604e-01
3.517580999999999676e+03,2.515561788643783103e-02,1.576607847230677706e-01
3.519510000000000218e+03,2.506094798456270922e-02,1.632260976817931919e-01
3.521438000000000102e+03,2.496855803862230161e-02,1.474713301254033659e-01
3.523367000000000189e+03,2.487835220842304906e-02,1.529017037095630194e-01
3.525295000000000073e+03,2.479042401997011424e-02,1.634751864180539194e-01
3.527224000000000160e+03,2.470468226144850732e-02,1.693130251010868115e-01
3.529152000000000044e+03,2.462121583048215712e-02,1.626956527622489546e-01
3.531080999999999676e+03,2.453993814363775172e-02,1.496921215022148921e-01
3.533009000000000015e+03,2.446093347015887431e-02,1.353685166696361186e-01
3.534938000000000102e+03,2.438411985499122636e-02,1.295217515336393177e-01
3.536865999999999985e+03,2.430957693899937766e-02,1.110697334058281527e-01
3.538795000000000073e+03,2.423722739550848715e-02,1.099715330891135601e-01
3.540722999999999956e+03,2.416714623700499942e-02,1.115290327005533655e-01
3.542652000000000044e+03,2.409926076519086635e-02,1.220945882562447515e-01
3.544579999999999927e+03,2.403364136417351915e-02,1.316243269489669743e-01
3.546509000000000015e+03,2.397021996403658761e-02,1.171350922447240706e-01
3.548436999999999898e+03,2.390906232050760138e-02,1.187078994688688383e-01
3.550365999999999985e+03,2.385010499204653911e-02,1.181331196118673432e-01
3.552294000000000324e+03,2.379340910600502568e-02,9.422243432363108795e-02
3.554222999999999956e+03,2.373891584922160902e-02,9.465064612654705556e-02
3.556150999999999840e+03,2.368668172066712430e-02,1.161241290901431356e-01
3.558079999999999927e+03,2.363665253556002099e-02,1.374015580888570121e-01
3.560007999999999811e+03,2.358888016449300906e-02,1.472219306463178334e-01
3.561936999999999898e+03,2.354331505106355138e-02,1.557977846693461288e-01
3.563864999999999782e+03,2.350000443748312406e-02,1.851197532512398602e-01
3.565794000000000324e+03,2.345890339573086791e-02,2.083435197170371289e-01
3.567722000000000207e+03,2.342005453963746930e-02,2.245613061313775916e-01
3.569650999999999840e+03,2.338341756956241468e-02,2.451067967827209593e-01
3.571579000000000178e+03,2.334903047095693296e-02,2.640610347666942914e-01
3.573507999999999811e+03,2.331685757255774760e-02,2.715964695476658086e-01
3.575435999999999694e+03,2.328693223144018276e-02,2.243943352429305094e-01
3.577364999999999782e+03,2.325922340471819894e-02,1.659308977509201810e-01
3.579292999999999665e+03,2.323375982108721871e-02,1.365453641304501531e-01
3.581222000000000207e+03,2.321051506604243642e-02,1.306375744027348240e-01
3.583150000000000091e+03,2.318951323989848490e-02,1.236986507861970175e-01
3.585079000000000178e+03,2.317073255653046004e-02,9.948723575660967100e-02
3.587007000000000062e+03,2.315419248787486950e-02,8.552893891939428173e-02
3.588935999999999694e+03,2.313987587618315800e-02,7.161222104832676294e-02
3.590864000000000033e+03,2.312779756501459616e-02,5.550127978820018626e-02
3.592792999999999665e+03,2.311794502499964210e-02,5.851392822756285028e-02
3.594720999999999549e+03,2.311032847131899715e-02,5.579927078310786825e-02
3.596650000000000091e+03,2.310494000298080053e-02,5.390437966150996019e-02
3.598577999999999975e+03,2.310178520678718428e-02,5.850585691809673250e-02
3.600507000000000062e+03,2.310086081012663328e-02,5.991218672016263014e-02
3.602434999999999945e+03,2.310216777141960165e-02,3.553250138049168783e-02
3.604364000000000033e+03,2.310570744643580809e-02,3.011982843427229994e-02
3.606291999999999916e+03,2.311147616521713744e-02,6.128833744149320140e-02
3.608220999999999549e+03,2.311947991191010132e-02,6.183112586628114471e-02
3.610149000000000342e+03,2.312971038817801528e-02,6.996105082464953995e-03
3.612077999999999975e+03,2.314217820654773661e-02,-2.314217820654773661e-02
3.614005999999999858e+03,2.315687044030356745e-02,-1.184838954561540092e-02
3.615934999999999945e+03,2.317380233035049031e-02,2.969572236675865895e-02
3.617862999999999829e+03,2.319295632159290577e-02,3.123202037924466268e-02
