wavenumber (/cm),baseline value (/cm),baseline-subtracted absorbance (/cm),
3.290019000000000233e+03,4.266141658900188816e-01,8.881784197001252323e-15
3.291947000000000116e+03,4.238041002053520856e-01,7.050513028571181451e-03
3.293875000000000000e+03,4.210103791903634374e-01,8.270142710847583345e-03
3.295804000000000087e+03,4.182315665381040048e-01,-4.201743611729646943e-03
3.297731999999999971e+03,4.154705433399854542e-01,-6.993376517990590457e-03
3.299660999999999603e+03,4.127244454640504046e-01,-1.568807067032551572e-03
3.301589000000000397e+03,4.099961200828019514e-01,-8.821842356800058127e-03
3.303518000000000029e+03,4.072827369831770739e-01,-2.185589634943996273e-02
3.305447000000000116e+03,4.045857155126846294e-01,-1.507033806627289252e-02
3.307375000000000000e+03,4.019064410955053290e-01,-4.300662903519825164e-03
3.309302999999999884e+03,3.992435113479970710e-01,-3.131675374092868225e-03
3.311231999999999971e+03,3.965955578010174065e-01,2.493910978106583798e-03
3.313159999999999854e+03,3.939653258703792460e-01,4.638588388707454158e-03
3.315089000000000397e+03,3.913500870997239645e-01,1.115317478284882924e-02
3.317017000000000280e+03,3.887525529859559015e-01,1.399861197210583441e-02
3.318945999999999913e+03,3.861700289916143447e-01,1.335746401863646682e-02
3.320875000000000000e+03,3.836038666263981156e-01,2.603639432420745692e-02
3.322802999999999884e+03,3.810553834766992054e-01,3.428944410950762745e-02
3.324730999999999767e+03,3.785232449966784429e-01,2.678430393155961653e-02
3.326659999999999854e+03,3.760061505549714411e-01,1.875340210113307648e-02
3.328587999999999738e+03,3.735067098918243289e-01,2.680549886866012699e-02
3.330517000000000280e+03,3.710223302264381573e-01,3.624421217803552864e-02
3.332445000000000164e+03,3.685555873801540372e-01,4.173518615199878212e-02
3.334374000000000251e+03,3.661039224910958012e-01,4.835553696836392135e-02
3.336302000000000135e+03,3.636698774616817786e-01,3.864978703039678720e-02
3.338230999999999767e+03,3.612509273489443729e-01,3.307619287472718383e-02
3.340159000000000106e+03,3.588495801363968951e-01,2.618676655512253149e-02
3.342087999999999738e+03,3.564633447999803195e-01,1.718530384866845395e-02
3.344015999999999622e+03,3.540946954043064920e-01,2.219980599364346219e-02
3.345945000000000164e+03,3.517411748442000885e-01,3.988790250901486090e-02
3.347873000000000047e+03,3.494052232653999113e-01,7.040558754541104136e-02
3.349802000000000135e+03,3.470844174816178906e-01,6.833123955472863997e-02
3.351730000000000018e+03,3.447811637196878110e-01,5.544064429522377324e-02
3.353659000000000106e+03,3.424930727122266205e-01,5.756657314052260332e-02
3.355586999999999989e+03,3.402225167671666384e-01,6.896294455622609121e-02
3.357515999999999622e+03,3.379671405360262781e-01,8.392475135586519031e-02
3.359444000000000415e+03,3.357292824078363935e-01,8.479075487082132767e-02
3.361373000000000047e+03,3.335066209530097581e-01,7.450549461082944802e-02
3.363302000000000135e+03,3.313003211273084503e-01,6.458131913364217880e-02
3.365230000000000018e+03,3.291115139631877184e-01,5.526220458294472948e-02
3.367157999999999902e+03,3.269390514687415816e-01,5.465367919295527344e-02
3.369086999999999989e+03,3.247818195665566066e-01,3.661799404015386727e-02
3.371014999999999873e+03,3.226420548889805673e-01,1.867574567019980591e-02
3.372944000000000415e+03,3.205175377631164224e-01,2.761107360687464762e-02
3.374872000000000298e+03,3.184104709024175861e-01,2.365476674902700083e-02
3.376800999999999931e+03,3.163186685528636133e-01,2.019857282644643703e-02
3.378729000000000269e+03,3.142442995090384272e-01,3.140434913961032137e-02
3.380657999999999902e+03,3.121852119358052846e-01,3.332364174546187385e-02
3.382585999999999785e+03,3.101435407088466434e-01,2.507733533961564731e-02
3.384514999999999873e+03,3.081171679119343310e-01,2.529848912441234887e-02
3.386442999999999756e+03,3.061081945018493400e-01,2.811920531175760019e-02
3.388372000000000298e+03,3.041145364812614105e-01,2.465713173868255836e-02
3.390300000000000182e+03,3.021382608880429643e-01,2.633797396750203745e-02
3.392229000000000269e+03,3.001773176437723123e-01,2.965586036181955265e-02
3.394157000000000153e+03,2.982337398674239637e-01,2.201136730871722236e-02
3.396085999999999785e+03,2.963055113994741419e-01,1.700856129390881932e-02
3.398014000000000124e+03,2.943946314399958908e-01,3.275634712477515365e-02
3.399942999999999756e+03,2.924991177483633464e-01,3.319985708854211737e-02
3.401870999999999640e+03,2.906209356057622983e-01,3.186368694782570898e-02
3.403800000000000182e+03,2.887581366904470315e-01,2.162396955372791751e-02
3.405728000000000065e+03,2.869126523647089755e-01,1.724112209941042195e-02
3.407657000000000153e+03,2.850825682257216442e-01,2.458005991966460968e-02
3.409585000000000036e+03,2.832697817168536858e-01,1.754196106040639691e-02
3.411514000000000124e+03,2.814724123541836320e-01,5.273160805182364186e-03
3.413442000000000007e+03,2.796923236621893238e-01,1.754625974880763550e-02
3.415370999999999640e+03,2.779276690758401003e-01,3.588873353366572871e-02
3.417299000000000433e+03,2.761802782007087842e-01,4.293901350478979140e-02
3.419228000000000065e+03,2.744483383906803908e-01,4.446032889729734094e-02
3.421155999999999949e+03,2.727336453324262777e-01,3.949655038052757305e-02
3.423085000000000036e+03,2.710344202987151618e-01,3.832065891843239314e-02
3.425012999999999920e+03,2.693524250573311463e-01,4.399892629402035737e-02
3.426942000000000007e+03,2.676859147999373079e-01,5.027680654209421007e-02
3.428869999999999891e+03,2.660366173754269425e-01,4.533057740556056814e-02
3.430799000000000433e+03,2.644028218943503816e-01,3.909018835728028662e-02
3.432727000000000317e+03,2.627862222867136666e-01,3.183260343556071348e-02
3.434655999999999949e+03,2.611851415819579358e-01,2.788661983463081029e-02
3.436584000000000287e+03,2.596012397911913183e-01,2.271283290219150430e-02
3.438512999999999920e+03,2.580328738627528651e-01,9.019316258402465536e-03
3.440440999999999804e+03,2.564816698888527924e-01,3.533720496378123244e-04
3.442369999999999891e+03,2.549460187367387221e-01,6.122291663368528702e-04
3.444297999999999774e+03,2.534275125797122996e-01,1.370762255542334884e-02
3.446227000000000317e+03,2.519245762039190595e-01,2.616489257520493439e-02
3.448155000000000200e+03,2.504387678637662873e-01,3.622106438227312708e-02
3.450084000000000287e+03,2.489685462642867719e-01,2.912092251483722194e-02
3.452012000000000171e+03,2.475154357410040973e-01,1.848829212479285999e-02
3.453940999999999804e+03,2.460779289178383067e-01,1.269467126855472472e-02
3.455869000000000142e+03,2.446575162114328350e-01,2.247668695725257848e-02
3.457797999999999774e+03,2.432527241645878746e-01,2.126731311407015212e-02
3.459725999999999658e+03,2.418650092750489478e-01,2.191691057583566860e-02
3.461655000000000200e+03,2.404929320045319230e-01,2.915292074476916184e-02
3.463583000000000084e+03,2.391379149318595410e-01,5.951259764968730437e-02
3.465512000000000171e+03,2.377985524376633464e-01,7.095168055394918127e-02
3.467440000000000055e+03,2.364762331818575092e-01,5.429729897098489744e-02
3.469369000000000142e+03,2.351695854639821448e-01,5.218549375316605676e-02
3.471297000000000025e+03,2.338799640250464051e-01,5.545088406442211237e-02
3.473225999999999658e+03,2.326060310834883182e-01,5.409294375341744399e-02
3.475154000000000451e+03,2.313491074614226761e-01,8.733588787874557724e-02
3.477083000000000084e+03,2.301078892961889721e-01,9.799462701322392277e-02
3.479010999999999967e+03,2.288836634909969803e-01,1.099933169377074194e-01
3.480940000000000055e+03,2.276751601020770011e-01,1.354236283415386488e-01
3.482867999999999938e+03,2.264836321137586594e-01,1.340475887622893936e-01
3.484797000000000025e+03,2.253078435011595104e-01,1.270155488567152879e-01
3.486724999999999909e+03,2.241490133297112664e-01,1.417699055892081006e-01
3.488654000000000451e+03,2.230059394934258421e-01,1.443659151198075641e-01
3.490582000000000335e+03,2.218798071388476956e-01,1.372981984529513255e-01
3.492510999999999967e+03,2.207694480788902069e-01,1.260842331885840828e-01
3.494439000000000306e+03,2.196760135411786052e-01,1.305933247626422933e-01
3.496367999999999938e+03,2.185983692575419468e-01,1.335442216091871082e-01
3.498295999999999822e+03,2.175376325367039954e-01,1.417540729618975703e-01
3.500224999999999909e+03,2.164927030293846144e-01,1.646769148643709713e-01
3.502152999999999793e+03,2.154646641254167605e-01,1.852082156509107236e-01
3.504082000000000335e+03,2.144524493944111043e-01,2.120629280520005544e-01
3.506010000000000218e+03,2.134571083073240061e-01,2.383881852621074771e-01
3.507939000000000306e+03,2.124776083526356274e-01,2.478513758039349035e-01
3.509867000000000189e+03,2.115149650824150740e-01,2.437142986640901121e-01
3.511795999999999822e+03,2.105681799040510782e-01,2.487440288564330970e-01
3.513724000000000160e+03,2.096382344507006223e-01,2.601958755213398256e-01
3.515652999999999793e+03,2.087241640486539040e-01,2.796467585981305959e-01
3.517580999999999676e+03,2.078269164121735457e-01,2.956996446316284555e-01
3.519510000000000218e+03,2.069455607864512103e-01,3.163247094838195217e-01
3.521438000000000102e+03,2.060810109668409495e-01,3.573178706734201349e-01
3.523367000000000189e+03,2.052323701174358916e-01,3.834945637129458795e-01
3.525295000000000073e+03,2.044005181146957284e-01,3.795444958648004352e-01
3.527224000000000160e+03,2.035845920416079480e-01,3.741833483125387438e-01
3.529152000000000044e+03,2.027854378557449877e-01,3.675882806903874034e-01
3.531080999999999676e+03,2.020022265589709320e-01,3.418067203189409931e-01
3.533009000000000015e+03,2.012357701899816220e-01,3.108630182536340492e-01
3.534938000000000102e+03,2.004852736695283966e-01,2.927169630499499853e-01
3.536865999999999985e+03,1.997515151174091841e-01,3.125243469515557315e-01
3.538795000000000073e+03,1.990337333732732361e-01,3.362924548839489880e-01
3.540722999999999956e+03,1.983326726380241212e-01,3.319189583032620128e-01
3.542652000000000044e+03,1.976476056702161088e-01,3.496310522980965452e-01
3.544579999999999927e+03,1.969792427518299860e-01,3.772276537998942025e-01
3.546509000000000015e+03,1.963268905603428038e-01,3.739126248171040778e-01
3.548436999999999898e+03,1.956912254588267785e-01,3.440394362373520032e-01
3.550365999999999985e+03,1.950715880436604266e-01,3.462629879116048137e-01
3.552294000000000324e+03,1.944686207590109461e-01,3.663431220182489234e-01
3.554222999999999956e+03,1.938816981201654244e-01,3.757566988975420408e-01
3.556150999999999840e+03,1.933114286523931469e-01,3.874322805740741948e-01
3.558079999999999927e+03,1.927572207898649026e-01,4.258522852679171855e-01
3.560007999999999811e+03,1.922196491389627226e-01,4.804737338992484119e-01
3.561936999999999898e+03,1.916981560527517559e-01,5.086513313657010649e-01
3.563864999999999782e+03,1.911932822187232262e-01,5.038384046405499639e-01
3.565794000000000324e+03,1.907045039088259841e-01,5.053896247025435606e-01
3.567722000000000207e+03,1.902323278916746574e-01,5.212094242052498494e-01
3.569650999999999840e+03,1.897762643580982456e-01,5.420103153250335204e-01
3.571579000000000178e+03,1.893367861578134637e-01,5.728141924069576341e-01
3.573507999999999811e+03,1.889134374005578820e-01,5.632319493655182363e-01
3.575435999999999694e+03,1.885066570171396449e-01,4.998353746697197231e-01
3.577364999999999782e+03,1.881160230362084462e-01,3.996211624251144734e-01
3.579292999999999665e+03,1.877419404696603067e-01,3.158796811519617442e-01
3.581222000000000207e+03,1.873840212650499382e-01,2.526942639166831484e-01
3.583150000000000091e+03,1.870426365153754489e-01,2.030198052367215844e-01
3.585079000000000178e+03,1.867174320870823578e-01,1.687187282111466402e-01
3.587007000000000062e+03,1.864087451542744134e-01,1.472110125344490150e-01
3.588935999999999694e+03,1.861162555022985998e-01,1.195827193346072903e-01
3.590864000000000033e+03,1.858402663863678583e-01,1.070423058410323591e-01
3.592792999999999665e+03,1.855804915107093223e-01,1.255406641276874957e-01
3.594720999999999549e+03,1.853372002116451256e-01,1.378557168433407476e-01
3.596650000000000091e+03,1.851101401123145251e-01,1.312458710712824939e-01
3.598577999999999975e+03,1.848995466301204260e-01,1.211302762962542801e-01
3.600507000000000062e+03,1.847052013071071030e-01,1.258334753005345696e-01
3.602434999999999945e+03,1.845273056417831015e-01,1.324121165390184096e-01
3.604364000000000033e+03,1.843656750950870560e-01,1.189642410279323492e-01
3.606291999999999916e+03,1.842204772466367046e-01,9.737038948216092393e-02
3.608220999999999549e+03,1.840915614762579366e-01,7.849278148739502470e-02
3.610149000000000342e+03,1.839790614446847883e-01,4.982988543322752761e-02
3.612077999999999975e+03,1.838828604506232978e-01,2.354677608246147358e-02
3.614005999999999858e+03,1.838030582359131415e-01,2.208696972308032969e-02
3.615934999999999945e+03,1.837395720181760339e-01,7.119701047993309828e-03
3.617862999999999829e+03,1.836924676203395279e-01,-7.716698748018835374e-03
