wavenumber (/cm),baseline value (/cm),baseline-subtracted absorbance (/cm),
3.290019000000000233e+03,4.929718658216089011e-01,1.998401444325281773e-15
3.291947000000000116e+03,4.920910575359318528e-01,-3.074207945577889234e-03
3.293875000000000000e+03,4.911982603798765723e-01,-6.987408625354740721e-03
3.295804000000000087e+03,4.902930019553224383e-01,-1.152039413340233409e-02
3.297731999999999971e+03,4.893762208402119285e-01,-1.302438902694902367e-02
3.299660999999999603e+03,4.884469660167898297e-01,-3.921537047861134440e-03
3.301589000000000397e+03,4.875062009426240905e-01,-8.972424470217177372e-03
3.303518000000000029e+03,4.865529497203340270e-01,-1.559298682034970795e-02
3.305447000000000116e+03,4.855876971878512194e-01,-1.140467044492354809e-02
3.307375000000000000e+03,4.846109530659585829e-01,-1.559255764162714719e-02
3.309302999999999884e+03,4.836222200736841614e-01,-1.900172231514352106e-02
3.311231999999999971e+03,4.826209760536599447e-01,-2.081930655296471144e-02
3.313159999999999854e+03,4.816082591023302939e-01,-1.691974464878254203e-02
3.315089000000000397e+03,4.805830186834398887e-01,-1.875584292211684989e-02
3.317017000000000280e+03,4.795463177730550086e-01,-2.182719580675418491e-02
3.318945999999999913e+03,4.784970809552948623e-01,-2.219935333124190002e-02
3.320875000000000000e+03,4.774358428273455246e-01,-2.555997329573322929e-02
3.322802999999999884e+03,4.763631628692319708e-01,-2.425850990896005754e-02
3.324730999999999767e+03,4.752784940407384084e-01,-2.178259050077890890e-02
3.326659999999999854e+03,4.741812644252441089e-01,-2.503842936572930888e-02
3.328587999999999738e+03,4.730726116376970936e-01,-1.795821992336743556e-02
3.330517000000000280e+03,4.719513856233366056e-01,-1.058177671933324682e-02
3.332445000000000164e+03,4.708187488767343609e-01,-1.376820010567225694e-02
3.334374000000000251e+03,4.696735264635041318e-01,-1.795069449565733777e-02
3.336302000000000135e+03,4.685169057578484342e-01,-2.173069459692711369e-02
3.338230999999999767e+03,4.673476869457537930e-01,-1.925988357583574562e-02
3.340159000000000106e+03,4.661670822810428660e-01,-2.094602802227019112e-02
3.342087999999999738e+03,4.649738670700784837e-01,-2.040206308182668238e-02
3.344015999999999622e+03,4.637692784463123274e-01,-1.169554216558910120e-02
3.345945000000000164e+03,4.625520668364835331e-01,-1.654959350211981928e-02
3.347873000000000047e+03,4.613234942536621475e-01,-1.920570170458191228e-02
3.349802000000000135e+03,4.600822862449671646e-01,-1.857741686793845659e-02
3.351730000000000018e+03,4.588297297030905497e-01,-1.851128790373990363e-02
3.353659000000000106e+03,4.575645252955240494e-01,-1.599318505746571972e-02
3.355586999999999989e+03,4.562879847945957579e-01,-1.196119549176688501e-02
3.357515999999999622e+03,4.549987839881612928e-01,-1.447629210378975628e-02
3.359444000000000415e+03,4.536982595281795483e-01,-1.533220604232399253e-02
3.361373000000000047e+03,4.523850623228788947e-01,-1.566377618900971491e-02
3.363302000000000135e+03,4.510598638073872735e-01,-1.726793306074947409e-02
3.365230000000000018e+03,4.497233602996750790e-01,-1.984702701786966728e-02
3.367157999999999902e+03,4.483748679215810995e-01,-1.984495603411784437e-02
3.369086999999999989e+03,4.470136779185445164e-01,-1.378211198872558718e-02
3.371014999999999873e+03,4.456412015813970839e-01,-9.164930132950832586e-03
3.372944000000000415e+03,4.442560151794960888e-01,-1.079643873800595344e-02
3.374872000000000298e+03,4.428595548832934270e-01,-1.004922871232460935e-02
3.376800999999999931e+03,4.414503720825226907e-01,-3.978583552610714946e-03
3.378729000000000269e+03,4.400299278272647996e-01,-7.935698121157575002e-04
3.380657999999999902e+03,4.385967486276314276e-01,-6.212299717444524916e-03
3.382585999999999785e+03,4.371523204133200835e-01,-8.622408525856828376e-03
3.384514999999999873e+03,4.356951448148151940e-01,-1.234454966873399506e-02
3.386442999999999756e+03,4.342267326414486206e-01,-1.192962335098668447e-02
3.388372000000000298e+03,4.327455606440775426e-01,-9.544911393807087308e-03
3.390300000000000182e+03,4.312531645116557399e-01,-6.975841896104784112e-03
3.392229000000000269e+03,4.297479961154166972e-01,-9.471291833456740861e-03
3.394157000000000153e+03,4.282316160239432179e-01,-1.283974711066471208e-02
3.396085999999999785e+03,4.267024512288379867e-01,-9.589296181690132315e-03
3.398014000000000124e+03,4.251620871783057254e-01,-6.862504553479809033e-03
3.399942999999999756e+03,4.236089259843325294e-01,-4.241944998090385610e-03
3.401870999999999640e+03,4.220445779747485915e-01,-4.054162145408657381e-03
3.403800000000000182e+03,4.204674203819074307e-01,-4.782615929905587038e-03
3.405728000000000065e+03,4.188790884132682635e-01,-3.026560974715097885e-03
3.407657000000000153e+03,4.172779344215626907e-01,-6.972632211020179938e-03
3.409585000000000036e+03,4.156656184938682941e-01,-5.511808013114016802e-03
3.411514000000000124e+03,4.140404681032912038e-01,-1.073547505954408621e-02
3.413442000000000007e+03,4.124041682165433542e-01,-1.356972703552616899e-02
3.415370999999999640e+03,4.107550214271036282e-01,-8.397624611521603555e-03
3.417299000000000433e+03,4.090947375812987730e-01,-8.059028816420177321e-03
3.419228000000000065e+03,4.074215943929875294e-01,-1.558514362779983564e-02
3.421155999999999949e+03,4.057373265881309976e-01,-1.886995914339473224e-02
3.423085000000000036e+03,4.040401870009535656e-01,-4.859479008991973714e-03
3.425012999999999920e+03,4.023319352370418045e-01,2.630191830510941742e-03
3.426942000000000007e+03,4.006107992509964077e-01,-6.869108108625177067e-03
3.428869999999999891e+03,3.988785635280294173e-01,-5.892012283633230041e-03
3.430799000000000433e+03,3.971334311431178321e-01,-4.807723924073359356e-03
3.432727000000000317e+03,3.953772114610973887e-01,-5.072682167543529630e-03
3.434655999999999949e+03,3.936080826773160624e-01,-4.293660046306602140e-03
3.436584000000000287e+03,3.918278790362421660e-01,-3.950309087254577634e-03
3.438512999999999920e+03,3.900347538535946512e-01,-1.334800228613985951e-03
3.440440999999999804e+03,3.882305662534655255e-01,4.137373483275030850e-04
3.442369999999999891e+03,3.864134446719500460e-01,-4.941037808447346080e-03
3.444297999999999774e+03,3.845852731127639146e-01,-1.134211342811397571e-02
3.446227000000000317e+03,3.827441551323840230e-01,-2.009304986109028412e-02
3.448155000000000200e+03,3.808919996141444386e-01,-2.384067792609401160e-02
3.450084000000000287e+03,3.790268852348965822e-01,-8.335124529996296161e-03
3.452012000000000171e+03,3.771507457576017686e-01,5.337274029072913706e-03
3.453940999999999804e+03,3.752616349794859474e-01,1.232413559700828998e-03
3.455869000000000142e+03,3.733615115431359044e-01,-1.260723167807675793e-03
3.457797999999999774e+03,3.714484043661538948e-01,1.708961532748576317e-03
3.459725999999999658e+03,3.695242969707521752e-01,3.081206198207508962e-03
3.461655000000000200e+03,3.675871933948986481e-01,7.688121701037164968e-04
3.463583000000000084e+03,3.656391020404399228e-01,4.244317360322380495e-04
3.465512000000000171e+03,3.636780020657237600e-01,5.467151744756870713e-03
3.467440000000000055e+03,3.617059267522115817e-01,1.170341008501196711e-02
3.469369000000000142e+03,3.597208303786239014e-01,1.850377929829671864e-02
3.471297000000000025e+03,3.577247711060564939e-01,1.809452090198182539e-02
3.473225999999999658e+03,3.557156783336061778e-01,8.431794227840461176e-03
3.475154000000000451e+03,3.536956351019835409e-01,8.615386694275306567e-03
3.477083000000000084e+03,3.516625459306617074e-01,2.591204055874940515e-02
3.479010999999999967e+03,3.496185187399856176e-01,2.230681747890450595e-02
3.480940000000000055e+03,3.475614331697993720e-01,7.458786249137094870e-04
3.482867999999999938e+03,3.454934220200680528e-01,4.096159058923909413e-03
3.484797000000000025e+03,3.434123400510120661e-01,1.798663969856262312e-02
3.486724999999999909e+03,3.413203449422272939e-01,1.485217012965400762e-02
3.488654000000000451e+03,3.392152665743051188e-01,1.767838004804733743e-02
3.490582000000000335e+03,3.370992875064651173e-01,2.483764246725561620e-02
3.492510999999999967e+03,3.349702127396749773e-01,2.579188341119831307e-02
3.494439000000000306e+03,3.328302497127815229e-01,2.797590270644834121e-02
3.496367999999999938e+03,3.306771785471251945e-01,3.207440593270138862e-02
3.498295999999999822e+03,3.285132315611747345e-01,4.298700031392188592e-02
3.500224999999999909e+03,3.263361639966522176e-01,3.399619030849532209e-02
3.502152999999999793e+03,3.241482330516483046e-01,1.494822698854325616e-02
3.504082000000000335e+03,3.219471690882542703e-01,1.373222494482662093e-02
3.506010000000000218e+03,3.197352541841969042e-01,3.361843262983921221e-02
3.507939000000000306e+03,3.175101938219384579e-01,4.079016171987603911e-02
3.509867000000000189e+03,3.152742949588258625e-01,3.385385467790325009e-02
3.511795999999999822e+03,3.130252381976994513e-01,4.475726296167592544e-02
3.513724000000000160e+03,3.107653553755298503e-01,6.157812893425518297e-02
3.515652999999999793e+03,3.084923022155390271e-01,6.092723712593572927e-02
3.517580999999999676e+03,3.062084354343177495e-01,5.967423576679520281e-02
3.519510000000000218e+03,3.039113858754536324e-01,6.246672511542583628e-02
3.521438000000000102e+03,3.016035351351771254e-01,5.159479536412714396e-02
3.523367000000000189e+03,2.992824891774503726e-01,4.750063031551610138e-02
3.525295000000000073e+03,2.969506544781186363e-01,4.947305861509487812e-02
3.527224000000000160e+03,2.946056121215203660e-01,3.607532774553767752e-02
3.529152000000000044e+03,2.922497934631351768e-01,4.058217438351774398e-02
3.531080999999999676e+03,2.898807547076742708e-01,6.387253018952776529e-02
3.533009000000000015e+03,2.875009520902338522e-01,7.903637980032107713e-02
3.534938000000000102e+03,2.851079169359014287e-01,7.331533240711918253e-02
3.536865999999999985e+03,2.827041303594093336e-01,6.064105436775091285e-02
3.538795000000000073e+03,2.802870988062089452e-01,6.552832861688573374e-02
3.540722999999999956e+03,2.778593282706598444e-01,6.643577143563161869e-02
3.542652000000000044e+03,2.754183003185932677e-01,5.585314812784347716e-02
3.544579999999999927e+03,2.729665458239924902e-01,3.229470011819368658e-02
3.546509000000000015e+03,2.705015214730579487e-01,2.872942612317008759e-02
3.548436999999999898e+03,2.680257830194001656e-01,4.819929040771375739e-02
3.550365999999999985e+03,2.655367622696012120e-01,6.091554875219484799e-02
3.552294000000000324e+03,2.630370398568864232e-01,5.940924241239797787e-02
3.554222999999999956e+03,2.605240227082195048e-01,7.707607004181893373e-02
3.556150999999999840e+03,2.580003163364512631e-01,9.037887673821209944e-02
3.558079999999999927e+03,2.554633027889181562e-01,8.782082149613379407e-02
3.560007999999999811e+03,2.529156124580946852e-01,8.877862158116944791e-02
3.561936999999999898e+03,2.503546025116918372e-01,8.593926052741784893e-02
3.563864999999999782e+03,2.477829282218149132e-01,7.299230751786645044e-02
3.565794000000000324e+03,2.451979218765458768e-01,1.611526408728169990e-02
3.567722000000000207e+03,2.426022636276137234e-01,6.429271385525847649e-03
3.569650999999999840e+03,2.399932608834767223e-01,9.420290544825915546e-02
3.571579000000000178e+03,2.373736186754893396e-01,1.394929758522582830e-01
3.573507999999999811e+03,2.347406195324879263e-01,1.338070694457158538e-01
3.575435999999999694e+03,2.320969933654470907e-01,1.152913201296834611e-01
3.577364999999999782e+03,2.294399978235741600e-01,1.077071655710772902e-01
3.579292999999999665e+03,2.267723876974798713e-01,9.847958324084138404e-02
3.581222000000000207e+03,2.240913957567407522e-01,1.001596476811941194e-01
3.583150000000000091e+03,2.213998016715912343e-01,9.300041474516551609e-02
3.585079000000000178e+03,2.186948133319823739e-01,5.403126488721698983e-02
3.587007000000000062e+03,2.159792352877811794e-01,-1.660452513165200372e-02
3.588935999999999694e+03,2.132502505493079070e-01,7.317843437397719697e-03
3.590864000000000033e+03,2.105106885460479305e-01,7.516252215112295687e-02
3.592792999999999665e+03,2.077577074087066933e-01,6.590901078575917005e-02
3.594720999999999549e+03,2.049941614463932638e-01,4.404819440458829227e-02
3.596650000000000091e+03,2.022171839101840618e-01,6.532494006570099820e-02
3.598577999999999975e+03,1.994296539888171793e-01,6.389698073061400585e-02
3.600507000000000062e+03,1.966286800537417889e-01,5.203185480481442582e-02
3.602434999999999945e+03,1.938171661733196771e-01,6.911837254982144962e-02
3.604364000000000033e+03,1.909921958393745456e-01,8.300610374325012586e-02
3.606291999999999916e+03,1.881566979998989808e-01,5.236965846941599168e-02
3.608220999999999549e+03,1.853077312670894372e-01,1.948589989692361968e-02
3.610149000000000342e+03,1.824482494685568668e-01,4.034661836263797596e-02
3.612077999999999975e+03,1.795752863368775820e-01,2.544790117278372676e-02
3.614005999999999858e+03,1.766918205792915586e-01,3.672996239381998151e-03
3.615934999999999945e+03,1.737948610487478618e-01,2.775174584567174918e-02
3.617862999999999829e+03,1.708874113321066091e-01,6.149997850147137513e-03
