wavenumber (/cm),baseline value (/cm),baseline-subtracted absorbance (/cm),
3.290019000000000233e+03,3.424836905871426751e-01,-3.774758283725532237e-15
3.291947000000000116e+03,3.420404228181936901e-01,-2.329332417448037873e-03
3.293875000000000000e+03,3.415866074558078225e-01,3.546786578916272248e-04
3.295804000000000087e+03,3.411220009110351725e-01,-4.118424767389772256e-04
3.297731999999999971e+03,3.406470848910245763e-01,-1.941491967096808935e-04
3.299660999999999603e+03,3.401613667443026401e-01,1.435091783190234338e-03
3.301589000000000397e+03,3.396653500666690917e-01,8.108847888761427924e-04
3.303518000000000029e+03,3.391585203179978691e-01,-4.081167102713667560e-03
3.305447000000000116e+03,3.386411320315634299e-01,-5.833117120100261843e-03
3.307375000000000000e+03,3.381134616321208597e-01,-6.835735630256856155e-03
3.309302999999999884e+03,3.375752436392360778e-01,-6.473659296272638031e-03
3.311231999999999971e+03,3.370261906866698354e-01,-6.330011749111852382e-03
3.313159999999999854e+03,3.364668720361638776e-01,-8.496694962538686724e-03
3.315089000000000397e+03,3.358967074816483489e-01,-9.002019690409035491e-03
3.317017000000000280e+03,3.353162881735176626e-01,-8.289261146490645160e-03
3.318945999999999913e+03,3.347250120170510712e-01,-8.150920684339313382e-03
3.320875000000000000e+03,3.341231773228230395e-01,-8.096150295796133989e-03
3.322802999999999884e+03,3.335111042928851077e-01,-8.743163938737863461e-03
3.324730999999999767e+03,3.328884836695067406e-01,-5.825109950960749572e-03
3.326659999999999854e+03,3.322549843091433530e-01,-6.345385054716379258e-03
3.328587999999999738e+03,3.316112630281402573e-01,-7.135028172595259122e-03
3.330517000000000280e+03,3.309566520658293598e-01,-5.748823547656156663e-03
3.332445000000000164e+03,3.302918301272033119e-01,-4.202361348079497461e-03
3.334374000000000251e+03,3.296161075629466808e-01,-6.617039529396073760e-03
3.336302000000000135e+03,3.289301849666923516e-01,-9.327202674055179443e-03
3.338230999999999767e+03,3.282333508004864342e-01,-9.144813987811861722e-03
3.340159000000000106e+03,3.275263275466109292e-01,-7.929869019118074291e-03
3.342087999999999738e+03,3.268083817784575018e-01,-9.309779728131406529e-03
3.344015999999999622e+03,3.260802578669554919e-01,-9.215393002090621621e-03
3.345945000000000164e+03,3.253412004968510018e-01,-1.242507747727983336e-02
3.347873000000000047e+03,3.245919759277278160e-01,-8.397194939843588557e-03
3.349802000000000135e+03,3.238318069556758161e-01,-6.350912267884867290e-03
3.351730000000000018e+03,3.230614817289296781e-01,-7.591770638529116155e-03
3.353659000000000106e+03,3.222802011549283918e-01,-7.926053904229402036e-03
3.355586999999999989e+03,3.214887752705557489e-01,-5.856902017993048659e-03
3.357515999999999622e+03,3.206863830946069527e-01,-4.780511705977152914e-03
3.359444000000000415e+03,3.198738565526095812e-01,-9.763728620229006339e-04
3.361373000000000047e+03,3.190503527747132750e-01,-2.176168245356491227e-03
3.363302000000000135e+03,3.182162904590484231e-01,-6.375656721863132148e-03
3.365230000000000018e+03,3.173721101952455825e-01,-1.164331243196525811e-02
3.367157999999999902e+03,3.165173823380023066e-01,-1.325922763157172390e-02
3.369086999999999989e+03,3.156516553562074279e-01,-1.707010829190203083e-02
3.371014999999999873e+03,3.147758268413376470e-01,-1.701627418523332658e-02
3.372944000000000415e+03,3.138889882575952583e-01,-1.854602460428700361e-02
3.374872000000000298e+03,3.129920590851025253e-01,-2.421293513356470584e-02
3.376800999999999931e+03,3.120841088994108503e-01,-2.934599147163852173e-02
3.378729000000000269e+03,3.111660790692951650e-01,-2.610643321654593230e-02
3.380657999999999902e+03,3.102370172816524274e-01,-2.782508811110262492e-02
3.382585999999999785e+03,3.092978867939137899e-01,-3.148893991600143494e-02
3.384514999999999873e+03,3.083477134043235424e-01,-3.308117099985041776e-02
3.386442999999999756e+03,3.073874822589601763e-01,-2.933342820490647540e-02
3.388372000000000298e+03,3.064161972674224188e-01,-2.835468748177483178e-02
3.390300000000000182e+03,3.054348654644325478e-01,-2.843206956508503858e-02
3.392229000000000269e+03,3.044424688709455040e-01,-3.201283233786100801e-02
3.394157000000000153e+03,3.034400364103344572e-01,-3.379325169458424760e-02
3.396085999999999785e+03,3.024265282148999034e-01,-3.153277239010954247e-02
3.398014000000000124e+03,3.014029950966641280e-01,-2.843934178818341429e-02
3.399942999999999756e+03,3.003683752992785116e-01,-2.721366886871012802e-02
3.401870999999999640e+03,2.993237415234197840e-01,-2.907117861568431216e-02
3.403800000000000182e+03,2.982680101240866577e-01,-2.607229716975290046e-02
3.405728000000000065e+03,2.972022756906032015e-01,-2.048838939051011998e-02
3.407657000000000153e+03,2.961254326893190125e-01,-2.120185393815421371e-02
3.409585000000000036e+03,2.950385975982126041e-01,-2.267326675012326653e-02
3.411514000000000124e+03,2.939406429949826816e-01,-2.578034476571922085e-02
3.413442000000000007e+03,2.928327072462515446e-01,-2.423158888651255616e-02
3.415370999999999640e+03,2.917136410410723357e-01,-2.266331485281503078e-02
3.417299000000000433e+03,2.905846046347182465e-01,-2.313819270554762220e-02
3.419228000000000065e+03,2.894444268275897514e-01,-2.682373717241737232e-02
3.421155999999999949e+03,2.882942897636091573e-01,-2.214983496398215124e-02
3.423085000000000036e+03,2.871330003545349285e-01,-1.561203110942810390e-02
3.425012999999999920e+03,2.859617626329278295e-01,-1.421898537290910980e-02
3.426942000000000007e+03,2.847793616219060908e-01,-1.208784251659400510e-02
3.428869999999999891e+03,2.835870232426778159e-01,-7.587023242678014867e-03
3.430799000000000433e+03,2.823835106297050146e-01,-1.147670727462601903e-02
3.432727000000000317e+03,2.811700715928537875e-01,-9.603435991735409516e-03
3.434655999999999949e+03,2.799454473779299235e-01,-5.622986986504319162e-03
3.436584000000000287e+03,2.787109076834539678e-01,-4.229081029213599408e-03
3.438512999999999920e+03,2.774651718665861466e-01,-2.698163478888293554e-03
3.440440999999999804e+03,2.762095315144854624e-01,2.881385693913607327e-04
3.442369999999999891e+03,2.749426840956665785e-01,-3.090866761090937942e-03
3.444297999999999774e+03,2.736659430859411657e-01,-7.721872611510249840e-04
3.446227000000000317e+03,2.723779840651747719e-01,-2.182271110841238482e-03
3.448155000000000200e+03,2.710801423978264069e-01,1.576893948865176753e-03
3.450084000000000287e+03,2.697710717751125031e-01,8.589599240730994012e-03
3.452012000000000171e+03,2.684521294501394095e-01,1.186473914259122964e-02
3.453940999999999804e+03,2.671219472254744431e-01,1.363760543062997321e-02
3.455869000000000142e+03,2.657819042428783973e-01,1.617336136755964660e-02
3.457797999999999774e+03,2.644306104162676974e-01,2.308383506369482419e-02
3.459725999999999658e+03,2.630694667760433703e-01,2.794730862004235483e-02
3.461655000000000200e+03,2.616970613474833840e-01,2.716687155093233663e-02
3.463583000000000084e+03,2.603148170496378810e-01,3.338415778726777638e-02
3.465512000000000171e+03,2.589213000191303848e-01,4.361364872271478177e-02
3.467440000000000055e+03,2.575179550636619297e-01,5.151839162785720738e-02
3.469369000000000142e+03,2.561033264312051472e-01,6.094047599190766107e-02
3.471297000000000025e+03,2.546788808181084107e-01,7.069204182867627750e-02
3.473225999999999658e+03,2.532431405837041183e-01,7.633654254770316783e-02
3.475154000000000451e+03,2.517975943129862060e-01,8.597034604116116085e-02
3.477083000000000084e+03,2.503407424766326272e-01,9.583260328291975938e-02
3.479010999999999967e+03,2.488740955482899864e-01,1.006953359521760571e-01
3.480940000000000055e+03,2.473961321099871213e-01,1.010633273494720985e-01
3.482867999999999938e+03,2.459083845240215283e-01,1.036545232112999759e-01
3.484797000000000025e+03,2.444093094837711533e-01,1.108115665646909331e-01
3.486724999999999909e+03,2.429004612401808316e-01,1.116167801391292347e-01
3.488654000000000451e+03,2.413802745979811704e-01,1.091500143116179711e-01
3.490582000000000335e+03,2.398503256967643438e-01,1.145671952724804932e-01
3.492510999999999967e+03,2.383090274526171726e-01,1.154337498074016199e-01
3.494439000000000306e+03,2.367579778937791701e-01,1.164927210810575708e-01
3.496367999999999938e+03,2.351955680476809363e-01,1.173216733316293503e-01
3.498295999999999822e+03,2.336234178312199816e-01,1.198481571920790856e-01
3.500224999999999909e+03,2.320398963831742378e-01,1.182089386587641400e-01
3.502152999999999793e+03,2.304466455090903310e-01,1.137192445188683898e-01
3.504082000000000335e+03,2.288420124590935245e-01,1.197656296657898523e-01
3.506010000000000218e+03,2.272276609273848891e-01,1.404498786811889666e-01
3.507939000000000306e+03,2.256019162754387963e-01,1.502424453275437166e-01
3.509867000000000189e+03,2.239664640861072087e-01,1.607353066501464589e-01
3.511795999999999822e+03,2.223196078322171587e-01,1.785079783746794657e-01
3.513724000000000160e+03,2.206630549852590661e-01,1.978877371862226564e-01
3.515652999999999793e+03,2.189950871294161772e-01,2.185268140821403637e-01
3.517580999999999676e+03,2.173174336248351324e-01,2.410404414916607063e-01
3.519510000000000218e+03,2.156283541670465098e-01,2.634406113501948088e-01
3.521438000000000102e+03,2.139296000048407365e-01,2.825969610389618136e-01
3.523367000000000189e+03,2.122194089451046040e-01,2.911925202254452838e-01
3.525295000000000073e+03,2.104995541252723257e-01,2.926010982512419201e-01
3.527224000000000160e+03,2.087682514635869069e-01,2.818515062251358838e-01
3.529152000000000044e+03,2.070272959861334527e-01,2.749139901275665654e-01
3.531080999999999676e+03,2.052748817224969713e-01,2.682759104489849111e-01
3.533009000000000015e+03,2.035128255874187886e-01,2.577863356427767538e-01
3.534938000000000102e+03,2.017392997218365736e-01,2.401442044720123459e-01
3.536865999999999985e+03,1.999561429291354386e-01,2.290419931379659157e-01
3.538795000000000073e+03,1.981615054616039373e-01,2.324890071199432473e-01
3.540722999999999956e+03,1.963572480112780738e-01,2.368235534798681652e-01
3.542652000000000044e+03,1.945414989417955098e-01,2.297241114962287334e-01
3.544579999999999927e+03,1.927161408338466941e-01,2.092568321391261588e-01
3.546509000000000015e+03,1.908792801624183966e-01,1.952968614964813998e-01
3.548436999999999898e+03,1.890328213968448523e-01,1.954611208212351237e-01
3.550365999999999985e+03,1.871748491234654921e-01,1.971094006435427648e-01
3.552294000000000324e+03,1.853072897002672192e-01,1.934448072242436201e-01
3.554222999999999956e+03,1.834282058249421254e-01,2.102661091797177750e-01
3.556150999999999840e+03,1.815395457441209004e-01,2.413709854767549512e-01
3.558079999999999927e+03,1.796393502668465203e-01,2.746532871982048096e-01
3.560007999999999811e+03,1.777295895283987903e-01,3.128678009655432302e-01
3.561936999999999898e+03,1.758082824491751239e-01,3.459559300391752412e-01
3.563864999999999782e+03,1.738774210531062181e-01,3.599277979590091991e-01
3.565794000000000324e+03,1.719350023719332654e-01,3.575505521481037174e-01
3.567722000000000207e+03,1.699830403182396310e-01,3.882741824217419424e-01
3.569650999999999840e+03,1.680195100351191684e-01,4.655778804588226460e-01
3.571579000000000178e+03,1.660464473237990290e-01,5.201110550061167626e-01
3.573507999999999811e+03,1.640618054387328328e-01,5.163342803021804261e-01
3.575435999999999694e+03,1.620676420697915177e-01,4.498251817885494663e-01
3.577364999999999782e+03,1.600618885827707061e-01,3.543397889568378201e-01
3.579292999999999665e+03,1.580466245562064387e-01,2.710791909144363299e-01
3.581222000000000207e+03,1.560197594672398935e-01,2.058404455653790599e-01
3.583150000000000091e+03,1.539833947830491212e-01,1.509485716661584931e-01
3.585079000000000178e+03,1.519354180921350661e-01,1.016955231939786763e-01
3.587007000000000062e+03,1.498779527503177889e-01,5.202325880606606390e-02
3.588935999999999694e+03,1.478088644574580002e-01,4.682394076155405038e-02
3.590864000000000033e+03,1.457302984580177707e-01,6.336289818690277187e-02
3.592792999999999665e+03,1.436400985632086957e-01,5.574480358031408400e-02
3.594720999999999549e+03,1.415404319061437377e-01,4.754996883942919084e-02
3.596650000000000091e+03,1.394291204093836001e-01,5.793434650580753242e-02
3.598577999999999975e+03,1.373083530946974662e-01,6.481746237594543381e-02
3.600507000000000062e+03,1.351759299959880423e-01,5.796852480363923199e-02
3.602434999999999945e+03,1.330340620236789562e-01,6.078513648517480661e-02
3.604364000000000033e+03,1.308805273230184696e-01,6.323410455023403820e-02
3.606291999999999916e+03,1.287175586930846549e-01,4.398234811027035285e-02
3.608220999999999549e+03,1.265429123904802111e-01,1.984292171949153527e-02
3.610149000000000342e+03,1.243588431029198915e-01,2.480518299214073963e-02
3.612077999999999975e+03,1.221630851983679378e-01,1.917149075689761339e-02
3.614005999999999858e+03,1.199579152531828896e-01,1.077181447654651514e-02
3.615934999999999945e+03,1.177410457466798732e-01,2.052456469134411599e-02
3.617862999999999829e+03,1.155147751438736492e-01,8.057452255939789865e-03
