wavenumber (/cm),baseline value (/cm),baseline-subtracted absorbance (/cm),
3.290019000000000233e+03,6.772861136999424048e-01,-3.552713678800500929e-14
3.291947000000000116e+03,6.782207264476980413e-01,-3.036197090754866323e-03
3.293875000000000000e+03,6.791164498701007801e-01,-1.122973635245161361e-03
3.295804000000000087e+03,6.799737182925156276e-01,-7.957127007169884081e-04
3.297731999999999971e+03,6.807916428933751263e-01,-3.951941122639190951e-03
3.299660999999999603e+03,6.815710721421694984e-01,-3.549636913837472818e-03
3.301589000000000397e+03,6.823111979214786516e-01,-2.715671360435045756e-03
3.303518000000000029e+03,6.830127879966454429e-01,-6.588743262255780664e-03
3.305447000000000116e+03,6.836754483943536798e-01,-6.812447462387405395e-03
3.307375000000000000e+03,6.842988658559505666e-01,-1.363903360991125524e-02
3.309302999999999884e+03,6.848833939921661340e-01,-1.583679566970586094e-02
3.311231999999999971e+03,6.854293057200848693e-01,-1.138643526342120182e-02
3.313159999999999854e+03,6.859360350347571966e-01,-1.397983745787012566e-02
3.315089000000000397e+03,6.864041075890412458e-01,-1.094651206248031805e-02
3.317017000000000280e+03,6.868330380821845438e-01,-8.043662499705561686e-03
3.318945999999999913e+03,6.872232714628339068e-01,-1.040873278622655995e-02
3.320875000000000000e+03,6.875745751660247151e-01,-1.035090321821474646e-02
3.322802999999999884e+03,6.878867973414486414e-01,-1.254383368814027122e-02
3.324730999999999767e+03,6.881601301914983537e-01,-1.307159337882368710e-02
3.326659999999999854e+03,6.883946852248925552e-01,-1.828005335163984668e-02
3.328587999999999738e+03,6.885902192533990274e-01,-2.213262372683799661e-02
3.330517000000000280e+03,6.887469351131656481e-01,-2.736948870123634414e-02
3.332445000000000164e+03,6.888646703201288801e-01,-2.926727982618659851e-02
3.334374000000000251e+03,6.889435470062679201e-01,-3.051484243963242804e-02
3.336302000000000135e+03,6.889834833916879120e-01,-2.953707146251738358e-02
3.338230999999999767e+03,6.889845209041922658e-01,-1.940017794053905398e-02
3.340159000000000106e+03,6.889466584680761230e-01,-1.804171904589546571e-02
3.342087999999999738e+03,6.888698568069457906e-01,-3.026128271561323579e-02
3.344015999999999622e+03,6.887541955492935131e-01,-2.693033720819393295e-02
3.345945000000000164e+03,6.885995547145427054e-01,-1.353804492889509881e-02
3.347873000000000047e+03,6.884060946353329768e-01,-1.429612259432655463e-02
3.349802000000000135e+03,6.881736146269616938e-01,-1.776634528865783658e-02
3.351730000000000018e+03,6.879023557262087252e-01,-1.905147035808241185e-02
3.353659000000000106e+03,6.875920365442027560e-01,-2.667032172593630790e-02
3.355586999999999989e+03,6.872429788219065472e-01,-3.440141311827216164e-02
3.357515999999999622e+03,6.868548204662658918e-01,-2.832919138891298871e-02
3.359444000000000415e+03,6.864279639224335483e-01,-1.970103009205126376e-02
3.361373000000000047e+03,6.859619663931582068e-01,-2.526112762335386286e-02
3.363302000000000135e+03,6.854570391864456269e-01,-2.325387050051852533e-02
3.365230000000000018e+03,6.849134743248868062e-01,-2.269446220932302971e-02
3.367157999999999902e+03,6.843310201379750879e-01,-2.758544697860876305e-02
3.369086999999999989e+03,6.837093442614445848e-01,-3.020608237887256742e-02
3.371014999999999873e+03,6.830490912529896264e-01,-2.171078743192733640e-02
3.372944000000000415e+03,6.823495762028386480e-01,-1.833280080675314672e-02
3.374872000000000298e+03,6.816115243728262385e-01,-2.726390088727193017e-02
3.376800999999999931e+03,6.808341701490405740e-01,-3.923584768864918360e-02
3.378729000000000269e+03,6.800183194974920298e-01,-3.905746208835880751e-02
3.380657999999999902e+03,6.791631261000787845e-01,-4.074840103018173565e-02
3.382585999999999785e+03,6.782694766269941056e-01,-3.510451856548435501e-02
3.384514999999999873e+03,6.773364440559532795e-01,-3.978099205222540569e-02
3.386442999999999756e+03,6.763649957613253605e-01,-4.609658942395356007e-02
3.388372000000000298e+03,6.753541240166427428e-01,-4.485272606696888431e-02
3.390300000000000182e+03,6.743048769004715837e-01,-4.805976972432990380e-02
3.392229000000000269e+03,6.732161659821684907e-01,-5.691420885262532536e-02
3.394157000000000153e+03,6.720891200444540914e-01,-4.447775005377385682e-02
3.396085999999999785e+03,6.709225699525234177e-01,-3.930467619669908430e-02
3.398014000000000124e+03,6.697177251932657782e-01,-3.459190972262304875e-02
3.399942999999999756e+03,6.684733359277075238e-01,-1.980884384942238619e-02
3.401870999999999640e+03,6.671906923468924333e-01,-2.781510986786184247e-02
3.403800000000000182e+03,6.658684639077137035e-01,-3.465783949019307641e-02
3.405728000000000065e+03,6.645080215053695838e-01,-3.567018366753194059e-02
3.407657000000000153e+03,6.631079538925490624e-01,-3.229061931659393814e-02
3.409585000000000036e+03,6.616697126686617025e-01,-2.408443773855939440e-02
3.411514000000000124e+03,6.601918058822136004e-01,-2.329618612452510895e-02
3.413442000000000007e+03,6.586757658367830004e-01,-3.075777888431341367e-02
3.415370999999999640e+03,6.571200198767144229e-01,-2.994108231846670520e-02
3.417299000000000433e+03,6.555261810097334774e-01,-2.583000207217556188e-02
3.419228000000000065e+03,6.538925958760302137e-01,-3.528308981824834767e-02
3.421155999999999949e+03,6.522209581875202389e-01,-4.345767766561925427e-02
3.423085000000000036e+03,6.505095338801822891e-01,-2.772575009639854926e-02
3.425012999999999920e+03,6.487600973701148632e-01,-1.353642542230515389e-02
3.426942000000000007e+03,6.469708338891635435e-01,-1.287670527779360974e-02
3.428869999999999891e+03,6.451435985575457721e-01,-1.330389678680954368e-02
3.430799000000000433e+03,6.432764959029597662e-01,-1.218050335869147460e-02
3.432727000000000317e+03,6.413714617498200710e-01,-6.957668646371928389e-03
3.434655999999999949e+03,6.394265199215993789e-01,-8.448823474016542434e-05
3.436584000000000287e+03,6.374436869469093381e-01,5.357804199409343937e-03
3.438512999999999920e+03,6.354209059450681707e-01,6.466326114577425344e-03
3.440440999999999804e+03,6.333602741488206789e-01,4.747677896692614752e-04
3.442369999999999891e+03,6.312596539733590362e-01,-9.772235520423500077e-03
3.444297999999999774e+03,6.291212233555754096e-01,-1.745640876544829467e-03
3.446227000000000317e+03,6.269427640064719753e-01,-2.284490752930490309e-02
3.448155000000000200e+03,6.247265345671451087e-01,-2.536959141709860255e-02
3.450084000000000287e+03,6.224702360444211990e-01,9.975243918299847579e-03
3.452012000000000171e+03,6.201762077835510922e-01,2.594960768709175802e-02
3.453940999999999804e+03,6.178420700871853910e-01,3.354190008988822136e-02
3.455869000000000142e+03,6.154702430047791495e-01,3.316722204647892802e-02
3.457797999999999774e+03,6.130582661347929729e-01,2.783548968999705053e-02
3.459725999999999658e+03,6.106086402308505967e-01,2.461409975050954380e-02
3.461655000000000200e+03,6.081188241872297340e-01,1.894454953131630148e-02
3.463583000000000084e+03,6.055913994617299068e-01,2.673944862773902642e-02
3.465512000000000171e+03,6.030237442444956741e-01,3.558855771263380596e-02
3.467440000000000055e+03,6.004185206974526068e-01,3.194308228483988543e-02
3.469369000000000142e+03,5.977730263065836880e-01,5.060255617244702186e-02
3.471297000000000025e+03,5.950900039379973805e-01,6.838902681689540408e-02
3.473225999999999658e+03,5.923666703734937755e-01,6.662494192846324381e-02
3.475154000000000451e+03,5.896058491833642279e-01,6.215556740563843441e-02
3.477083000000000084e+03,5.868046764452330422e-01,7.206484825187797760e-02
3.479010999999999967e+03,5.839660564335744652e-01,6.944028093827991910e-02
3.480940000000000055e+03,5.810870445218014879e-01,4.779273180625076556e-02
3.482867999999999938e+03,5.781706256885996709e-01,4.647615902715029890e-02
3.484797000000000025e+03,5.752137746032062182e-01,6.824475288980402787e-02
3.486724999999999909e+03,5.722195569484611610e-01,6.704978135535988315e-02
3.488654000000000451e+03,5.691848666894401276e-01,6.840786397225584459e-02
3.490582000000000335e+03,5.661128502131447249e-01,9.147615258275454408e-02
3.492510999999999967e+03,5.630003207804961107e-01,9.255140335743483604e-02
3.494439000000000306e+03,5.598505054826574678e-01,7.609916832908525386e-02
3.496367999999999938e+03,5.566601368763812729e-01,7.120006815623725061e-02
3.498295999999999822e+03,5.534325227570064953e-01,8.892814825883710306e-02
3.500224999999999909e+03,5.501643149770956143e-01,7.976858343856152445e-02
3.502152999999999793e+03,5.468589020361775965e-01,3.560521725552767691e-02
3.504082000000000335e+03,5.435128550826320293e-01,3.267540214010788979e-02
3.506010000000000218e+03,5.401296433201707714e-01,8.601387951300720758e-02
3.507939000000000306e+03,5.367057571929976234e-01,9.278911699153180592e-02
3.509867000000000189e+03,5.332447466090002308e-01,7.888200082809193603e-02
3.511795999999999822e+03,5.297430213082066075e-01,1.043818621959871074e-01
3.513724000000000160e+03,5.262042119026517639e-01,1.334733277059221290e-01
3.515652999999999793e+03,5.226246474282305599e-01,1.486950170638474678e-01
3.517580999999999676e+03,5.190080392011324761e-01,1.449015600532943537e-01
3.519510000000000218e+03,5.153506355530836913e-01,1.447220578299543980e-01
3.521438000000000102e+03,5.116562285044494729e-01,1.288656727071069152e-01
3.523367000000000189e+03,5.079209856827660019e-01,1.008134038792096732e-01
3.525295000000000073e+03,5.041487798125885433e-01,1.087990300662557974e-01
3.527224000000000160e+03,5.003356978172774916e-01,9.171742427032736344e-02
3.529152000000000044e+03,4.964856931255567929e-01,1.030893301736042211e-01
3.531080999999999676e+03,4.925947719566181604e-01,1.434956287889548321e-01
3.533009000000000015e+03,4.886669684433542216e-01,1.690431899909421443e-01
3.534938000000000102e+03,4.846982081007809029e-01,1.596093408274579240e-01
3.536865999999999985e+03,4.806926057659808293e-01,1.521060894809904696e-01
3.538795000000000073e+03,4.766460062497799299e-01,1.714611698918788729e-01
3.540722999999999956e+03,4.725626050934224054e-01,1.743432662952073553e-01
3.542652000000000044e+03,4.684381664036010307e-01,1.391387208284584620e-01
3.544579999999999927e+03,4.642769664257002660e-01,7.773235323879168490e-02
3.546509000000000015e+03,4.600746885622584159e-01,6.318626204351951436e-02
3.548436999999999898e+03,4.558356897628073057e-01,1.121987929958132568e-01
3.550365999999999985e+03,4.515555727257378749e-01,1.369700563516151881e-01
3.552294000000000324e+03,4.472387751047577353e-01,1.147957076538632659e-01
3.554222999999999956e+03,4.428808188940465129e-01,1.500921540789263986e-01
3.556150999999999840e+03,4.384862224515160278e-01,1.892584187414008134e-01
3.558079999999999927e+03,4.340504270671843301e-01,1.995273921313243104e-01
3.560007999999999811e+03,4.295780318031106049e-01,1.904098526330497698e-01
3.561936999999999898e+03,4.250643972451442210e-01,1.782161246560671763e-01
3.563864999999999782e+03,4.205142031595272556e-01,1.413059273157757367e-01
3.565794000000000324e+03,4.159227294279332909e-01,3.220401800915895230e-02
3.567722000000000207e+03,4.112947365207730854e-01,3.448904726301060819e-02
3.569650999999999840e+03,4.066254236155515400e-01,2.120521159930224275e-01
3.571579000000000178e+03,4.019196318868551998e-01,3.024158760348594210e-01
3.573507999999999811e+03,3.971724798079989682e-01,3.076103720093354976e-01
3.575435999999999694e+03,3.923888892577664933e-01,2.685253698289062907e-01
3.577364999999999782e+03,3.875638980052755755e-01,2.390558596834475580e-01
3.579292999999999665e+03,3.827025086334998605e-01,2.136973049732102670e-01
3.581222000000000207e+03,3.777996782073884674e-01,1.968266032464789372e-01
3.583150000000000091e+03,3.728604900140553013e-01,1.698170495945185987e-01
3.585079000000000178e+03,3.678798204143234329e-01,1.002879335465338695e-01
3.587007000000000062e+03,3.628628333994470267e-01,-2.346301979273701654e-02
3.588935999999999694e+03,3.578043246260804722e-01,3.640536782499137480e-02
3.590864000000000033e+03,3.527095387896679313e-01,1.461944686660636705e-01
3.592792999999999665e+03,3.475731908426666905e-01,1.338592415897656984e-01
3.594720999999999549e+03,3.424006061847180149e-01,8.494515336793795335e-02
3.596650000000000091e+03,3.371864190640820880e-01,9.801302175604820199e-02
3.598577999999999975e+03,3.319360355845901722e-01,1.090471890193240867e-01
3.600507000000000062e+03,3.266440092903266645e-01,9.881358623623426318e-02
3.602434999999999945e+03,3.213158269892986141e-01,1.379861301402445228e-01
3.604364000000000033e+03,3.159459615214075257e-01,1.743699751048739532e-01
3.606291999999999916e+03,3.105399803988291296e-01,1.248728807381702666e-01
3.608220999999999549e+03,3.050922757573104604e-01,6.157874008611918804e-02
3.610149000000000342e+03,2.996084958131817189e-01,9.190594966678089506e-02
3.612077999999999975e+03,2.940829519980425744e-01,6.862254660400779471e-02
3.614005999999999858e+03,2.885213732323776981e-01,2.742177681422042212e-02
3.615934999999999945e+03,2.829179902435967620e-01,6.857502000803394893e-02
3.617862999999999829e+03,2.772786126563957509e-01,2.512026898386499063e-02
