wavenumber (/cm),baseline value (/cm),baseline-subtracted absorbance (/cm),
3.290019000000000233e+03,2.738247903075468059e-01,1.998401444325281773e-15
3.291947000000000116e+03,2.735535369869239730e-01,-6.204981534920106512e-03
3.293875000000000000e+03,2.732744631815560155e-01,7.937093202414313708e-03
3.295804000000000087e+03,2.729874180581628451e-01,1.259785687193981651e-02
3.297731999999999971e+03,2.726926992270328753e-01,1.145641540483999243e-02
3.299660999999999603e+03,2.723900009632380659e-01,1.254382941886844627e-02
3.301589000000000397e+03,2.720796371063443075e-01,-7.254898556454669745e-04
3.303518000000000029e+03,2.717612857021478590e-01,-3.200241899725009276e-03
3.305447000000000116e+03,2.714351056985631061e-01,1.394420464626411338e-02
3.307375000000000000e+03,2.711012722748940007e-01,1.649239035325145153e-02
3.309302999999999884e+03,2.707596183664779943e-01,1.110245059903913756e-02
3.311231999999999971e+03,2.704099606814764911e-01,6.003832421971999622e-03
3.313159999999999854e+03,2.700526617472984725e-01,1.103867096472366249e-02
3.315089000000000397e+03,2.696873509218971066e-01,9.775836403359328131e-03
3.317017000000000280e+03,2.693144069619552994e-01,5.309078592564686616e-03
3.318945999999999913e+03,2.689334429961505180e-01,3.277181421370345404e-03
3.320875000000000000e+03,2.685446504309574323e-01,2.913877062052927513e-03
3.322802999999999884e+03,2.681482369042402780e-01,9.142048478567588177e-04
3.324730999999999767e+03,2.677440028927779991e-01,5.702409036392630526e-03
3.326659999999999854e+03,2.673317326461681631e-01,1.264403622615239975e-02
3.328587999999999738e+03,2.669118536089420957e-01,1.532672980205496138e-02
3.330517000000000280e+03,2.664839302219323969e-01,1.467357210798359013e-02
3.332445000000000164e+03,2.660484061589425409e-01,2.514823876184002494e-02
3.334374000000000251e+03,2.656048296315312029e-01,2.167382833678188625e-02
3.336302000000000135e+03,2.651536605427811111e-01,8.946059867284139600e-03
3.338230999999999767e+03,2.646944308749645813e-01,7.601002489434183218e-03
3.340159000000000106e+03,2.642276167604524773e-01,8.260733658932428725e-03
3.342087999999999738e+03,2.637527339522360847e-01,1.712051861067154235e-02
3.344015999999999622e+03,2.632702748119619685e-01,1.979496283948267710e-02
3.345945000000000164e+03,2.627797388633439368e-01,1.659957148148349937e-02
3.347873000000000047e+03,2.622816346973060320e-01,2.257577443596514577e-02
3.349802000000000135e+03,2.617754456082863612e-01,2.209407908882443650e-02
3.351730000000000018e+03,2.612616964164882205e-01,2.312134179413605217e-02
3.353659000000000106e+03,2.607398541870651343e-01,2.293022968991520472e-02
3.355586999999999989e+03,2.602104599695049814e-01,3.544657637718651166e-02
3.357515999999999622e+03,2.596729645996802560e-01,4.519656009743067138e-02
3.359444000000000415e+03,2.591279253563580909e-01,5.111438592043615614e-02
3.361373000000000047e+03,2.585747768461317264e-01,4.557340581929203438e-02
3.363302000000000135e+03,2.580137997365188340e-01,3.344845562228826452e-02
3.365230000000000018e+03,2.574452909264195455e-01,3.060969509408373312e-02
3.367157999999999902e+03,2.568689616315733559e-01,3.040224060514584714e-02
3.369086999999999989e+03,2.562845068405437132e-01,1.976581934771348692e-02
3.371014999999999873e+03,2.556925325199355115e-01,4.513432065339273436e-03
3.372944000000000415e+03,2.550924245885024533e-01,-7.772760096424136123e-03
3.374872000000000298e+03,2.544848052421322393e-01,-1.960875677987683474e-02
3.376800999999999931e+03,2.538690441702975420e-01,-1.110949151419338143e-02
3.378729000000000269e+03,2.532457797981653158e-01,-6.570104122489706100e-03
3.380657999999999902e+03,2.526143655859307557e-01,-1.523598720755248159e-02
3.382585999999999785e+03,2.519754561880347410e-01,-9.215903531930580428e-03
3.384514999999999873e+03,2.513283888353985418e-01,-9.997540745929622830e-03
3.386442999999999756e+03,2.506738344117422912e-01,-1.490216619179829394e-02
3.388372000000000298e+03,2.500111139187009002e-01,-1.351810366706995836e-02
3.390300000000000182e+03,2.493409144692826374e-01,-7.399628355582610340e-03
3.392229000000000269e+03,2.486625408358413836e-01,-6.078197872188217943e-03
3.394157000000000153e+03,2.479766963606611085e-01,-5.157497851807413269e-03
3.396085999999999785e+03,2.472826695868182156e-01,-1.062656520657601078e-02
3.398014000000000124e+03,2.465811800858741520e-01,-1.977596107375867440e-02
3.399942999999999756e+03,2.458715001716296200e-01,-1.475593633192784360e-02
3.401870999999999640e+03,2.451543656449253206e-01,-1.221214756477628782e-02
3.403800000000000182e+03,2.444290325902773731e-01,-2.347935877853446485e-02
3.405728000000000065e+03,2.436962530378110614e-01,-2.823958947769922290e-02
3.407657000000000153e+03,2.429552668427614748e-01,-1.591053245319962173e-02
3.409585000000000036e+03,2.422068422645331509e-01,-3.428650279444722671e-03
3.411514000000000124e+03,2.414502029290801488e-01,-5.699969937467574965e-03
3.413442000000000007e+03,2.406861333250898127e-01,-6.771874238416630831e-03
3.415370999999999640e+03,2.399138408492369479e-01,-6.297811026310551341e-03
3.417299000000000433e+03,2.391341262194845996e-01,-8.452858745113811523e-03
3.419228000000000065e+03,2.383461806032300956e-01,-1.215419551469332227e-02
3.421155999999999949e+03,2.375508209477157351e-01,-4.545229149020446613e-03
3.423085000000000036e+03,2.367472221910578156e-01,1.194063922641763753e-03
3.425012999999999920e+03,2.359362175097814429e-01,5.238992182669433006e-03
3.426942000000000007e+03,2.351169656127218843e-01,2.034994957833102802e-02
3.428869999999999891e+03,2.342903159056834994e-01,1.906383134501554721e-02
3.430799000000000433e+03,2.334554108682205253e-01,1.244393675526489496e-02
3.432727000000000317e+03,2.326131161354219046e-01,9.872438384615378482e-03
3.434655999999999949e+03,2.317625579575590677e-01,5.071552014481728321e-03
3.436584000000000287e+03,2.309046181989966584e-01,2.739370617406144959e-03
3.438512999999999920e+03,2.300384068807304061e-01,3.610241767918243028e-03
3.440440999999999804e+03,2.291648220964059846e-01,2.005087516834258565e-04
3.442369999999999891e+03,2.282829576377398695e-01,4.232419808672061023e-03
3.444297999999999774e+03,2.273937278276534357e-01,1.754942221894473242e-02
3.446227000000000317e+03,2.264962102285839052e-01,1.237890626722237819e-02
3.448155000000000200e+03,2.255913353927354592e-01,8.083408316490903189e-03
3.450084000000000287e+03,2.246781646532642895e-01,1.307113637189893929e-02
3.452012000000000171e+03,2.237576447916538314e-01,1.627124616827146930e-02
3.453940999999999804e+03,2.228288209117810226e-01,1.868189670238451505e-02
3.455869000000000142e+03,2.218926560244085522e-01,2.166279597931941581e-02
3.457797999999999774e+03,2.209481790041341043e-01,3.131463553454238991e-02
3.459725999999999658e+03,2.199963690909996217e-01,3.772590490713634281e-02
3.461655000000000200e+03,2.190362389303217583e-01,3.015201829241820342e-02
3.463583000000000084e+03,2.180687839914252635e-01,1.408871833849101307e-02
3.465512000000000171e+03,2.170930006903475373e-01,2.301976725000653978e-02
3.467440000000000055e+03,2.161099007256890303e-01,4.391899023423651016e-02
3.469369000000000142e+03,2.151184642842096650e-01,5.040157299444825156e-02
3.471297000000000025e+03,2.141197192937891458e-01,6.019621733249214124e-02
3.473225999999999658e+03,2.131126297119063651e-01,8.011383813525108089e-02
3.475154000000000451e+03,2.120982396957238336e-01,9.461564660436949659e-02
3.477083000000000084e+03,2.110754969734376374e-01,9.864957292404619160e-02
3.479010999999999967e+03,2.100454619314930937e-01,9.775230134902890278e-02
3.480940000000000055e+03,2.090070660688088111e-01,1.020702871464753692e-01
3.482867999999999938e+03,2.079613860011004789e-01,1.211327426102692950e-01
3.484797000000000025e+03,2.069073369980127808e-01,1.227245362545501539e-01
3.486724999999999909e+03,2.058460119045442127e-01,1.134848361849243314e-01
3.488654000000000451e+03,2.047763097610530991e-01,1.070578002109878746e-01
3.490582000000000335e+03,2.036993396418242952e-01,1.100713966116704245e-01
3.492510999999999967e+03,2.026139843579315425e-01,1.215286065087972656e-01
3.494439000000000306e+03,2.015213692129389500e-01,1.369940082334728526e-01
3.496367999999999938e+03,2.004203607886445582e-01,1.275274490901998625e-01
3.498295999999999822e+03,1.993121006178899535e-01,1.267056067446448164e-01
3.500224999999999909e+03,1.981954390531939225e-01,1.343096867622766144e-01
3.502152999999999793e+03,1.970715338566773056e-01,1.451428184266403409e-01
3.504082000000000335e+03,1.959392191515796355e-01,1.724009486023814208e-01
3.506010000000000218e+03,1.947996689293010064e-01,1.824594177435787667e-01
3.507939000000000306e+03,1.936517010837999209e-01,1.892951768285950909e-01
3.509867000000000189e+03,1.924965058357592795e-01,1.957336898771948608e-01
3.511795999999999822e+03,1.913328848498583312e-01,2.162626417111856991e-01
3.513724000000000160e+03,1.901620445760556777e-01,2.454735565423038501e-01
3.515652999999999793e+03,1.889827704497530902e-01,2.712101466052330156e-01
3.517580999999999676e+03,1.877962851501866481e-01,2.997722143838299491e-01
3.519510000000000218e+03,1.866013578834806452e-01,3.301684464035650191e-01
3.521438000000000102e+03,1.853992275581557436e-01,3.571441088817326470e-01
3.523367000000000189e+03,1.841886471510463252e-01,3.579390322524951262e-01
3.525295000000000073e+03,1.829708717999576351e-01,3.469592307163520406e-01
3.527224000000000160e+03,1.817446382524483539e-01,3.412003757270485327e-01
3.529152000000000044e+03,1.805112178755976515e-01,3.329584932148030862e-01
3.531080999999999676e+03,1.792693311876867313e-01,3.229543407601227489e-01
3.533009000000000015e+03,1.780202657850722403e-01,3.062528003845452762e-01
3.534938000000000102e+03,1.767627259567614573e-01,2.954786533535831428e-01
3.536865999999999985e+03,1.754980155283867305e-01,3.062671289264129459e-01
3.538795000000000073e+03,1.742248225596707556e-01,3.159578428643736725e-01
3.540722999999999956e+03,1.729444671055340166e-01,3.196669028851462091e-01
3.542652000000000044e+03,1.716556209964164026e-01,3.294142764872740603e-01
3.544579999999999927e+03,1.703596205165176514e-01,3.347112089336217178e-01
3.546509000000000015e+03,1.690551212669966219e-01,3.269747016593782529e-01
3.548436999999999898e+03,1.677434757613376348e-01,3.073329454874971223e-01
3.550365999999999985e+03,1.664233233714167426e-01,2.870948499743426474e-01
3.552294000000000324e+03,1.650960328399921906e-01,2.812506586791132523e-01
3.554222999999999956e+03,1.637602273096696592e-01,2.993087382075716452e-01
3.556150999999999840e+03,1.624172917524848714e-01,3.410337800089313642e-01
3.558079999999999927e+03,1.610658330817607009e-01,3.972426478129269523e-01
3.560007999999999811e+03,1.597072524988139008e-01,4.542181901852495596e-01
3.561936999999999898e+03,1.583401406876863149e-01,4.811472777652492372e-01
3.563864999999999782e+03,1.569659150789775026e-01,4.701673561232591059e-01
3.565794000000000324e+03,1.555831501274482775e-01,4.457365143646299099e-01
3.567722000000000207e+03,1.541932794929774531e-01,4.607843533122413238e-01
3.569650999999999840e+03,1.527948614010483652e-01,5.244996399969010792e-01
3.571579000000000178e+03,1.513893457408155285e-01,5.736908033738161716e-01
3.573507999999999811e+03,1.499752745084812489e-01,5.716593946434291862e-01
3.575435999999999694e+03,1.485541138224864000e-01,5.057273400451747225e-01
3.577364999999999782e+03,1.471243894497522575e-01,4.022428053312354645e-01
3.579292999999999665e+03,1.456875837379953964e-01,3.051623696636820426e-01
3.581222000000000207e+03,1.442422062248578385e-01,2.354772718739306381e-01
3.583150000000000091e+03,1.427897554873389652e-01,1.881673740559972607e-01
3.585079000000000178e+03,1.413287248338015445e-01,1.480608371419673830e-01
3.587007000000000062e+03,1.398606290705188826e-01,9.652427307300381898e-02
3.588935999999999694e+03,1.383839452765798228e-01,9.347346385669141888e-02
3.590864000000000033e+03,1.369002044875369251e-01,1.192964404332459427e-01
3.592792999999999665e+03,1.354078675531944498e-01,1.137216757832453240e-01
3.594720999999999549e+03,1.339084817383895398e-01,1.115323383920858724e-01
3.596650000000000091e+03,1.324004916636436491e-01,1.176666099206991056e-01
3.598577999999999975e+03,1.308854608230767269e-01,1.233792176484980185e-01
3.600507000000000062e+03,1.293618176079327498e-01,1.064452653370810964e-01
3.602434999999999945e+03,1.278311417416020390e-01,8.588367652494022231e-02
3.604364000000000033e+03,1.262918453860546464e-01,8.052828508924814166e-02
3.606291999999999916e+03,1.247455244939636998e-01,7.187796106055599488e-02
3.608220999999999549e+03,1.231905749980128917e-01,3.450374000664657714e-02
3.610149000000000342e+03,1.216286090801599329e-01,1.812535177724905466e-02
3.612077999999999975e+03,1.200580064438074857e-01,7.452711170358394810e-03
3.614005999999999858e+03,1.184803955001925146e-01,-6.695679749959548843e-03
3.615934999999999945e+03,1.168941397234402046e-01,-7.521353143757236737e-03
3.617862999999999829e+03,1.153008837540614451e-01,-7.768730911563936914e-03
