wavenumber (/cm),baseline value (/cm),baseline-subtracted absorbance (/cm),
3.290019000000000233e+03,3.433181326325556171e-01,-4.440892098500626162e-16
3.291947000000000116e+03,3.427855597073357075e-01,-2.797153462166246385e-03
3.293875000000000000e+03,3.422441716703001902e-01,-5.605587654223587180e-03
3.295804000000000087e+03,3.416936808591124475e-01,-6.011968075065432515e-03
3.297731999999999971e+03,3.411346580262986095e-01,-5.323095188147775048e-03
3.299660999999999603e+03,3.405665232726509117e-01,-1.278379819257935424e-03
3.301589000000000397e+03,3.399898656440587530e-01,-1.025574408937579562e-03
3.303518000000000029e+03,3.394040869479511002e-01,-2.588504941459124353e-03
3.305447000000000116e+03,3.388094839933550873e-01,-3.312498369611560634e-03
3.307375000000000000e+03,3.382063718850147893e-01,-8.656209572447171041e-03
3.309302999999999884e+03,3.375944446648606601e-01,-9.529828804604179027e-03
3.311231999999999971e+03,3.369733780838384263e-01,-7.200615678520705387e-03
3.313159999999999854e+03,3.363438160679024236e-01,-5.153523905280454898e-03
3.315089000000000397e+03,3.357051055444237875e-01,-4.721955134777910956e-03
3.317017000000000280e+03,3.350579087327059113e-01,-3.204453793766326442e-03
3.318945999999999913e+03,3.344015542667673202e-01,-1.365983230359191225e-04
3.320875000000000000e+03,3.337363755423368161e-01,-3.390108731392338370e-03
3.322802999999999884e+03,3.330627242508761299e-01,-7.623707401286150542e-03
3.324730999999999767e+03,3.323802578475980596e-01,-6.297401146408088124e-03
3.326659999999999854e+03,3.316886154967448874e-01,-5.112637756754079277e-03
3.328587999999999738e+03,3.309885142976867201e-01,4.305612935944225228e-04
3.330517000000000280e+03,3.302792280043735929e-01,3.483331896693364627e-03
3.332445000000000164e+03,3.295614920095353284e-01,3.731134362392918291e-03
3.334374000000000251e+03,3.288345617737622462e-01,5.950254885656036663e-04
3.336302000000000135e+03,3.280991909831474374e-01,-1.267377719892159860e-03
3.338230999999999767e+03,3.273546168049179528e-01,3.542739818980678024e-03
3.340159000000000106e+03,3.266016112185194942e-01,4.695343488544612143e-03
3.342087999999999738e+03,3.258393930978282782e-01,1.589884997704071878e-03
3.344015999999999622e+03,3.250687527156514989e-01,4.339965787981014955e-03
3.345945000000000164e+03,3.242888906525021042e-01,4.884088169572642357e-03
3.347873000000000047e+03,3.235006154745470042e-01,4.451154505357379776e-03
3.349802000000000135e+03,3.227031094689394308e-01,6.248815094362036859e-03
3.351730000000000018e+03,3.218971994952024573e-01,8.407329798350904326e-03
3.353659000000000106e+03,3.210820495471367053e-01,7.699060361659348928e-03
3.355586999999999989e+03,3.202585047776178584e-01,9.351172143080788146e-03
3.357515999999999622e+03,3.194257108870939277e-01,7.389098202409627447e-03
3.359444000000000415e+03,3.185845313217949837e-01,8.837017603850139125e-03
3.361373000000000047e+03,3.177340934888146506e-01,1.035912030002394957e-02
3.363302000000000135e+03,3.168748313973388520e-01,1.173082635501820903e-02
3.365230000000000018e+03,3.160071973522953215e-01,5.514676198485002345e-03
3.367157999999999902e+03,3.151307481954379597e-01,-2.443669927791880525e-04
3.369086999999999989e+03,3.142450224775377166e-01,2.763788776133146996e-03
3.371014999999999873e+03,3.133509385248984813e-01,4.555229352671830156e-03
3.372944000000000415e+03,3.124475688645418359e-01,3.115114703242660710e-03
3.374872000000000298e+03,3.115358501161207272e-01,4.692314978947287329e-03
3.376800999999999931e+03,3.106148365133059031e-01,1.028715761252474437e-02
3.378729000000000269e+03,3.096854829691064737e-01,1.418142072543648879e-02
3.380657999999999902e+03,3.087468254238316945e-01,1.121916622866470092e-02
3.382585999999999785e+03,3.077998370838503917e-01,7.810767337234736374e-03
3.384514999999999873e+03,3.068435355961174338e-01,7.676482953889784966e-03
3.386442999999999756e+03,3.058789124603578102e-01,1.183943658895447726e-02
3.388372000000000298e+03,3.049049670301648973e-01,9.244051365258965092e-03
3.390300000000000182e+03,3.039227090986269531e-01,6.783737029058656276e-03
3.392229000000000269e+03,3.029311197259758615e-01,3.792837366920487341e-04
3.394157000000000153e+03,3.019312269986560437e-01,-7.579390097864902032e-04
3.396085999999999785e+03,3.009219936835449971e-01,4.324566835854692926e-03
3.398014000000000124e+03,2.999044661604450823e-01,4.669656578772940492e-03
3.399942999999999756e+03,2.988775889028776334e-01,7.229228224962191973e-03
3.401870999999999640e+03,2.978424265839993978e-01,1.182599202784162529e-02
3.403800000000000182e+03,2.967979053839719938e-01,1.263786521426535359e-02
3.405728000000000065e+03,2.957451082693118849e-01,1.306150790011173513e-02
3.407657000000000153e+03,2.946829431268263022e-01,7.228480586266350372e-03
3.409585000000000036e+03,2.936125112163860962e-01,8.832225218920353171e-03
3.411514000000000124e+03,2.925327021314441112e-01,8.894102629724010001e-03
3.413442000000000007e+03,2.914446354252202553e-01,8.942595986126011809e-03
3.415370999999999640e+03,2.903471823978200916e-01,8.482621281264535185e-03
3.417299000000000433e+03,2.892414808958161387e-01,3.198618037558720317e-03
3.419228000000000065e+03,2.881263839259577964e-01,-7.509596168962850982e-03
3.421155999999999949e+03,2.870030476281772991e-01,-1.095110760653605908e-02
3.423085000000000036e+03,2.858703067158572253e-01,2.570719717903457990e-03
3.425012999999999920e+03,2.847293356222948546e-01,8.336826071938752136e-03
3.426942000000000007e+03,2.835789507675166021e-01,3.378847964899289735e-03
3.428869999999999891e+03,2.824203448781759107e-01,1.279624336185669620e-04
3.430799000000000433e+03,2.812523160809377032e-01,2.174797847025899955e-03
3.432727000000000317e+03,2.800760753958169147e-01,5.429412314802650741e-03
3.434655999999999949e+03,2.788904026561240812e-01,4.339617439717002867e-03
3.436584000000000287e+03,2.776965271752214193e-01,3.979929773302082197e-03
3.438512999999999920e+03,2.764932104930668544e-01,4.846840810559527313e-04
3.440440999999999804e+03,2.752817002163858717e-01,2.778916834440536832e-04
3.442369999999999891e+03,2.740607395917731282e-01,4.438206184604887028e-04
3.444297999999999774e+03,2.728315945193120484e-01,1.614996916767807988e-03
3.446227000000000317e+03,2.715929899522393498e-01,-8.478907404704916217e-03
3.448155000000000200e+03,2.703462100839981730e-01,-1.002390369970385109e-02
3.450084000000000287e+03,2.690899615744690720e-01,4.888242166448897308e-03
3.452012000000000171e+03,2.678255469104477982e-01,8.336920240580525387e-03
3.453940999999999804e+03,2.665516544584587422e-01,2.922761989214706091e-03
3.455869000000000142e+03,2.652696049986538185e-01,3.050073467878888778e-03
3.457797999999999774e+03,2.639780686042101365e-01,4.534066192512398175e-03
3.459725999999999658e+03,2.626783843486268921e-01,8.027288862070491859e-03
3.461655000000000200e+03,2.613692040117214788e-01,5.856023998790149676e-03
3.463583000000000084e+03,2.600518849603581373e-01,8.800333311399288760e-03
3.465512000000000171e+03,2.587250606809963216e-01,1.443771563682716419e-02
3.467440000000000055e+03,2.573901068338493303e-01,1.902046667055623530e-02
3.469369000000000142e+03,2.560456386120275596e-01,2.399455307138564919e-02
3.471297000000000025e+03,2.546930499691040239e-01,2.297196780798627103e-02
3.473225999999999658e+03,2.533309378048258509e-01,2.183523934774767028e-02
3.475154000000000451e+03,2.519607143661204418e-01,2.648031206764045464e-02
3.477083000000000084e+03,2.505809582593823137e-01,3.703613866440846891e-02
3.479010999999999967e+03,2.491931000248968076e-01,3.303058215163723332e-02
3.480940000000000055e+03,2.477956999757022771e-01,1.467840730517577796e-02
3.482867999999999938e+03,2.463902069454348975e-01,1.704540906940499312e-02
3.484797000000000025e+03,2.449751629537804121e-01,2.905250747441545656e-02
3.486724999999999909e+03,2.435520351277347118e-01,2.670611914649612118e-02
3.488654000000000451e+03,2.421193471936202712e-01,2.857936976417807529e-02
3.490582000000000335e+03,2.406785845717962502e-01,3.281190854924220801e-02
3.492510999999999967e+03,2.392282526952254074e-01,3.197595197319325067e-02
3.494439000000000306e+03,2.377698552776177365e-01,3.340961604716197186e-02
3.496367999999999938e+03,2.363018794585851623e-01,3.831552663200055164e-02
3.498295999999999822e+03,2.348258472452009471e-01,4.789636638905436783e-02
3.500224999999999909e+03,2.333402274837119705e-01,4.537054697911058199e-02
3.502152999999999793e+03,2.318465604745458819e-01,3.025113623282793540e-02
3.504082000000000335e+03,2.303432967705969503e-01,2.699091253532337475e-02
3.506010000000000218e+03,2.288319949656507646e-01,4.661629688780388747e-02
3.507939000000000306e+03,2.273110873192454306e-01,5.221743331763839535e-02
3.509867000000000189e+03,2.257821507185155951e-01,5.018090384942341942e-02
3.511795999999999822e+03,2.242435991296520825e-01,6.215306186895652729e-02
3.513724000000000160e+03,2.226970277331457027e-01,7.946791275224596163e-02
3.515652999999999793e+03,2.211408322018222350e-01,8.403616578859374187e-02
3.517580999999999676e+03,2.195766260095339817e-01,8.360856490096191251e-02
3.519510000000000218e+03,2.180027865357541117e-01,8.572731085178597610e-02
3.521438000000000102e+03,2.164209455476839850e-01,7.675728910991397314e-02
3.523367000000000189e+03,2.148294621314459363e-01,6.900729780053760365e-02
3.525295000000000073e+03,2.132299863475974888e-01,7.485086076942248923e-02
3.527224000000000160e+03,2.116208589888977087e-01,6.363729528533346169e-02
3.529152000000000044e+03,2.100037484092709406e-01,6.850220305154186562e-02
3.531080999999999676e+03,2.083769771081147582e-01,9.068083708264085274e-02
3.533009000000000015e+03,2.067422317327061165e-01,1.028550785161730374e-01
3.534938000000000102e+03,2.050978164890899791e-01,9.517579612491555707e-02
3.536865999999999985e+03,2.034454363178994640e-01,8.835777901677355217e-02
3.538795000000000073e+03,2.017833771318251479e-01,9.427783789368104905e-02
3.540722999999999956e+03,2.001133621648580885e-01,9.784768281891098596e-02
3.542652000000000044e+03,1.984336590363238173e-01,8.973298186644340646e-02
3.544579999999999927e+03,1.967460092735766608e-01,6.271294883432210199e-02
3.546509000000000015e+03,1.950486622025842109e-01,4.849438927368687757e-02
3.548436999999999898e+03,1.933433776440534047e-01,6.930154429133050797e-02
3.550365999999999985e+03,1.916283866306027761e-01,8.365063640232328623e-02
3.552294000000000324e+03,1.899054672762936491e-01,7.762506294476034796e-02
3.554222999999999956e+03,1.881728323203866182e-01,9.365202468997013696e-02
3.556150999999999840e+03,1.864322781702991705e-01,1.118874002962333414e-01
3.558079999999999927e+03,1.846819992719304082e-01,1.145211233127039208e-01
3.560007999999999811e+03,1.829238103260593107e-01,1.144212198177032569e-01
3.561936999999999898e+03,1.811558874852341461e-01,1.167781054039291888e-01
3.563864999999999782e+03,1.793800637435847278e-01,1.053679653180941145e-01
3.565794000000000324e+03,1.775944969603013845e-01,5.408505165617727428e-02
3.567722000000000207e+03,1.758010384228700929e-01,5.149066044867067760e-02
3.569650999999999840e+03,1.739978276971285709e-01,1.265385766930400280e-01
3.571579000000000178e+03,1.721867343639171821e-01,1.667249985159715564e-01
3.573507999999999811e+03,1.703658796957174815e-01,1.672836797415988563e-01
3.575435999999999694e+03,1.685371515667259956e-01,1.540312515867752197e-01
3.577364999999999782e+03,1.666986529560645636e-01,1.437643243201756071e-01
3.579292999999999665e+03,1.648522900312965334e-01,1.270869586933898177e-01
3.581222000000000207e+03,1.629961474781751463e-01,1.144509077080972936e-01
3.583150000000000091e+03,1.611321497576252426e-01,9.793803110494980757e-02
3.585079000000000178e+03,1.592583632620492295e-01,5.611727439446623222e-02
3.587007000000000062e+03,1.573767307457192288e-01,-9.739537980222312541e-03
3.588935999999999694e+03,1.554853003076814844e-01,1.917848080222706031e-02
3.590864000000000033e+03,1.535860329955696102e-01,7.070674795975540050e-02
3.592792999999999665e+03,1.516769586150772398e-01,6.183363034766786726e-02
3.594720999999999549e+03,1.497600565071870449e-01,4.023376015690294238e-02
3.596650000000000091e+03,1.478333381842329430e-01,5.041136733439444129e-02
3.598577999999999975e+03,1.458988012805626511e-01,5.754686265513031529e-02
3.600507000000000062e+03,1.439544390151503706e-01,4.701016138676639144e-02
3.602434999999999945e+03,1.420022673156964288e-01,5.952192498605057835e-02
3.604364000000000033e+03,1.400402611078295223e-01,7.381736758284906941e-02
3.606291999999999916e+03,1.380704546125954835e-01,5.143333268064909092e-02
3.608220999999999549e+03,1.360908044622686219e-01,2.610969020460407464e-02
3.610149000000000342e+03,1.341033631712544860e-01,3.862580671589999071e-02
3.612077999999999975e+03,1.321060690784694458e-01,2.372327085042202910e-02
3.614005999999999858e+03,1.301009929916769892e-01,8.232597980652567315e-03
3.615934999999999945e+03,1.280860549564319939e-01,2.914303763902337252e-02
3.617862999999999829e+03,1.260633440738576638e-01,9.053366391438277816e-03
