wavenumber (/cm),baseline value (/cm),baseline-subtracted absorbance (/cm),
3.290019000000000233e+03,2.985855619106487779e-01,2.109423746787797427e-15
3.291947000000000116e+03,2.979129989156659164e-01,-2.864305145376833117e-03
3.293875000000000000e+03,2.972356943094673909e-01,-4.882934995817600488e-03
3.295804000000000087e+03,2.965532931033312281e-01,-1.986899534000552414e-03
3.297731999999999971e+03,2.958665028153566467e-01,-3.124966256383143737e-03
3.299660999999999603e+03,2.951746110074884299e-01,-5.555659082924990777e-03
3.301589000000000397e+03,2.944783350377422337e-01,-3.621943014245343484e-03
3.303518000000000029e+03,2.937769526281392984e-01,2.579895634069462318e-05
3.305447000000000116e+03,2.930708236873611483e-01,1.187176003472178998e-03
3.307375000000000000e+03,2.923603179652829454e-01,-3.883737350040772363e-03
3.309302999999999884e+03,2.916450706319890784e-01,-5.327247166229454045e-03
3.311231999999999971e+03,2.909247070189202589e-01,1.111929246344955935e-03
3.313159999999999854e+03,2.901999740038521125e-01,5.497970036958066409e-03
3.315089000000000397e+03,2.894701197890494626e-01,6.264151350230284798e-03
3.317017000000000280e+03,2.887359010922070368e-01,5.764021616094239242e-03
3.318945999999999913e+03,2.879965562756723330e-01,2.173485461845259259e-03
3.320875000000000000e+03,2.872524649279615261e-01,7.790045506418041832e-03
3.322802999999999884e+03,2.865040164787879817e-01,1.570652610893807921e-02
3.324730999999999767e+03,2.857508264183987734e-01,1.520836356459709382e-02
3.326659999999999854e+03,2.849925003983972971e-01,1.129440638781387118e-02
3.328587999999999738e+03,2.842298246562320330e-01,1.327442638720588430e-02
3.330517000000000280e+03,2.834620080344976145e-01,1.714318596766639669e-02
3.332445000000000164e+03,2.826898466105607355e-01,1.911259580712376671e-02
3.334374000000000251e+03,2.819125393870924867e-01,1.891680054179911696e-02
3.336302000000000135e+03,2.811308922813795519e-01,1.523717078864705865e-02
3.338230999999999767e+03,2.803440944561792492e-01,1.663766470288730037e-02
3.340159000000000106e+03,2.795529616686938112e-01,1.938505038881122022e-02
3.342087999999999738e+03,2.787566732417596782e-01,1.420359882502053583e-02
3.344015999999999622e+03,2.779560547725008490e-01,1.330998325501508983e-02
3.345945000000000164e+03,2.771502757438319975e-01,1.584555050442892910e-02
3.347873000000000047e+03,2.763401715927997770e-01,1.661005255312708595e-02
3.349802000000000135e+03,2.755249019623979834e-01,2.207441787065211880e-02
3.351730000000000018e+03,2.747053121295914835e-01,2.870634345859846004e-02
3.353659000000000106e+03,2.738805518974576358e-01,2.747050699881692370e-02
3.355586999999999989e+03,2.730514763828768565e-01,3.194311319820208883e-02
3.357515999999999622e+03,2.722172255490100667e-01,3.431469592262381685e-02
3.359444000000000415e+03,2.713786643526550080e-01,3.119205755181242434e-02
3.361373000000000047e+03,2.705349229170543879e-01,3.073111511046155986e-02
3.363302000000000135e+03,2.696864349502776648e-01,3.057094640696467192e-02
3.365230000000000018e+03,2.688336440015923756e-01,2.631166439228616039e-02
3.367157999999999902e+03,2.679761114416887580e-01,1.979402304586741490e-02
3.369086999999999989e+03,2.671133888026213654e-01,1.287269869158180757e-02
3.371014999999999873e+03,2.662463705609461329e-01,8.362533442763830926e-03
3.372944000000000415e+03,2.653741573201457982e-01,3.917077801202206722e-03
3.374872000000000298e+03,2.644976533966953980e-01,-1.255266629034301751e-03
3.376800999999999931e+03,2.636159495541621212e-01,-5.187289792220606266e-03
3.378729000000000269e+03,2.627299599489383297e-01,-8.733979117279688786e-03
3.380657999999999902e+03,2.618387655046721108e-01,-7.831190918182850957e-03
3.382585999999999785e+03,2.609432902176749280e-01,-3.448314178101319349e-03
3.384514999999999873e+03,2.600426051716739906e-01,-6.471728683808630755e-03
3.386442999999999756e+03,2.591376442029034166e-01,-7.526885198420374401e-03
3.388372000000000298e+03,2.582274685551695370e-01,-1.043723822590669759e-02
3.390300000000000182e+03,2.573130219046246836e-01,-1.323820354011695510e-02
3.392229000000000269e+03,2.563933556551578619e-01,-1.411479637242474272e-02
3.394157000000000153e+03,2.554694233228396172e-01,-1.371026425652333014e-02
3.396085999999999785e+03,2.545402664716380770e-01,-1.610001295486573891e-02
3.398014000000000124e+03,2.536068484575464410e-01,-1.458768011622624261e-02
3.399942999999999756e+03,2.526682010046128468e-01,-1.138284005237910623e-02
3.401870999999999640e+03,2.517252973087469314e-01,-1.683041401921203661e-02
3.403800000000000182e+03,2.507771592540803951e-01,-1.672784715020048107e-02
3.405728000000000065e+03,2.498247698764393121e-01,-1.568348065090197085e-02
3.407657000000000153e+03,2.488671412200389454e-01,-1.447001647123691281e-02
3.409585000000000036e+03,2.479052661606253594e-01,-1.515445459778719250e-02
3.411514000000000124e+03,2.469381469024920506e-01,-1.549742963552669384e-02
3.413442000000000007e+03,2.459667861613050732e-01,-1.273367439750827668e-02
3.415370999999999640e+03,2.449901763014388223e-01,-1.165426657814305766e-02
3.417299000000000433e+03,2.440093298784766773e-01,-1.182970397029914356e-02
3.419228000000000065e+03,2.430232294168774843e-01,-1.141633499733807344e-02
3.421155999999999949e+03,2.420328973121419480e-01,-1.156296378300292194e-02
3.423085000000000036e+03,2.410373062488089246e-01,-9.552532713486550087e-03
3.425012999999999920e+03,2.400374884622999971e-01,-3.663242056363924526e-03
3.426942000000000007e+03,2.390324067972340316e-01,-5.075071815011100718e-03
3.428869999999999891e+03,2.380231033289508247e-01,-1.750881965525086237e-03
3.430799000000000433e+03,2.370085310621510288e-01,-5.103290684967620727e-03
3.432727000000000317e+03,2.359897419120944306e-01,-6.482090033906096060e-03
3.434655999999999949e+03,2.349656790435608045e-01,-5.863035667459270961e-03
3.436584000000000287e+03,2.339374042117308150e-01,-1.076071538811051997e-02
3.438512999999999920e+03,2.329038507414642467e-01,-8.297265488720229065e-03
3.440440999999999804e+03,2.318660902278599778e-01,2.377898154234392436e-04
3.442369999999999891e+03,2.308230461558613555e-01,2.028244615509655624e-03
3.444297999999999774e+03,2.297757999604828072e-01,3.009792866847438297e-03
3.446227000000000317e+03,2.287232652867494664e-01,1.812366186430547366e-03
3.448155000000000200e+03,2.276665334095975268e-01,2.610943789351227728e-03
3.450084000000000287e+03,2.266045081341321321e-01,3.403993952744044371e-03
3.452012000000000171e+03,2.255382905752059131e-01,1.006303884201475984e-02
3.453940999999999804e+03,2.244667746980084644e-01,1.268348036459776562e-02
3.455869000000000142e+03,2.233910714573079659e-01,1.306664998340945072e-02
3.457797999999999774e+03,2.223100649783766869e-01,1.795581846574167972e-02
3.459725999999999658e+03,2.212248760559010208e-01,2.282520896496798013e-02
3.461655000000000200e+03,2.201343789752367996e-01,2.043371501146917790e-02
3.463583000000000084e+03,2.190397043709895186e-01,2.426065117082554234e-02
3.465512000000000171e+03,2.179397166885905790e-01,3.764151688692340958e-02
3.467440000000000055e+03,2.168355564025681304e-01,4.490427973903010628e-02
3.469369000000000142e+03,2.157260781184380249e-01,4.916803225410804057e-02
3.471297000000000025e+03,2.146124321506412969e-01,5.704161020520992498e-02
3.473225999999999658e+03,2.134934632647773611e-01,6.093071357862955839e-02
3.475154000000000451e+03,2.123703316152081300e-01,7.276570177480590207e-02
3.477083000000000084e+03,2.112418721276094757e-01,8.351079443600173402e-02
3.479010999999999967e+03,2.101092547962668533e-01,8.749315670473800655e-02
3.480940000000000055e+03,2.089713047069352569e-01,8.381815270533887752e-02
3.482867999999999938e+03,2.078292016938183551e-01,9.113199787334813617e-02
3.484797000000000025e+03,2.066817610027538166e-01,1.029178679970915722e-01
3.486724999999999909e+03,2.055301723078635234e-01,1.096761965281235485e-01
3.488654000000000451e+03,2.043732410150642664e-01,1.073681409605117265e-01
3.490582000000000335e+03,2.032121666384005820e-01,1.099877096948810307e-01
3.492510999999999967e+03,2.020457447438701593e-01,1.146701309710783656e-01
3.494439000000000306e+03,2.008751846854313072e-01,1.148776364615776702e-01
3.496367999999999938e+03,1.996992721891679423e-01,1.190671522968423934e-01
3.498295999999999822e+03,1.985192264489548108e-01,1.249627645852083857e-01
3.500224999999999909e+03,1.973338233509567274e-01,1.279428809310033666e-01
3.502152999999999793e+03,1.961442919289710929e-01,1.377326596864255626e-01
3.504082000000000335e+03,1.949493982292409555e-01,1.537621491505704041e-01
3.506010000000000218e+03,1.937503811254801533e-01,1.618841837222552149e-01
3.507939000000000306e+03,1.925459968240170738e-01,1.647866666479261832e-01
3.509867000000000189e+03,1.913374940384819922e-01,1.742383291181109906e-01
3.511795999999999822e+03,1.901236191352850824e-01,1.913611544000372033e-01
3.513724000000000160e+03,1.889056306679774977e-01,2.079068596705603289e-01
3.515652999999999793e+03,1.876822651630476457e-01,2.316414324718264472e-01
3.517580999999999676e+03,1.864547910139666698e-01,2.556359494405086030e-01
3.519510000000000218e+03,1.852219349073020993e-01,2.758137738575766607e-01
3.521438000000000102e+03,1.839849750764477321e-01,2.900140974231656399e-01
3.523367000000000189e+03,1.827426283680502195e-01,2.989369202484285504e-01
3.525295000000000073e+03,1.814961828554215728e-01,3.014347183657873908e-01
3.527224000000000160e+03,1.802443455452911181e-01,2.899171941053505508e-01
3.529152000000000044e+03,1.789884143508890801e-01,2.820480673309783137e-01
3.531080999999999676e+03,1.777270864390239069e-01,2.826585991383453456e-01
3.533009000000000015e+03,1.764616695628484777e-01,2.787122367596125416e-01
3.534938000000000102e+03,1.751908510492512505e-01,2.674911709015913575e-01
3.536865999999999985e+03,1.739159484913006537e-01,2.714565974972599216e-01
3.538795000000000073e+03,1.726356393759695962e-01,2.817011978477129697e-01
3.540722999999999956e+03,1.713512511362464963e-01,2.953530308238710989e-01
3.542652000000000044e+03,1.700614514191824966e-01,2.988788793892888096e-01
3.544579999999999927e+03,1.687675774976851173e-01,2.999973011543476398e-01
3.546509000000000015e+03,1.674682871788881755e-01,3.018113541876291661e-01
3.548436999999999898e+03,1.661649275756165167e-01,2.924105864141811617e-01
3.550365999999999985e+03,1.648561466550866328e-01,2.765335580906237434e-01
3.552294000000000324e+03,1.635433013700406946e-01,2.721623718406566139e-01
3.554222999999999956e+03,1.622250298477778685e-01,2.841909540755486185e-01
3.556150999999999840e+03,1.609026988809594272e-01,3.126565838520752871e-01
3.558079999999999927e+03,1.595749367569627708e-01,3.523635390507356968e-01
3.560007999999999811e+03,1.582431201083700500e-01,3.920119424979061629e-01
3.561936999999999898e+03,1.569058673826395633e-01,4.035045515383682835e-01
3.563864999999999782e+03,1.555645650522716750e-01,3.909851335101030001e-01
3.565794000000000324e+03,1.542178217248091343e-01,3.696970028230345262e-01
3.567722000000000207e+03,1.528670337126687429e-01,3.854781510144916767e-01
3.569650999999999840e+03,1.515107997834714837e-01,4.350242133561174063e-01
3.571579000000000178e+03,1.501505260895568128e-01,4.694135487288079167e-01
3.573507999999999811e+03,1.487848015586274997e-01,4.616209798604481440e-01
3.575435999999999694e+03,1.474150421829403257e-01,4.097120253700047288e-01
3.577364999999999782e+03,1.460398270502771823e-01,3.360501404872092701e-01
3.579292999999999665e+03,1.446605819928148406e-01,2.653347805052529429e-01
3.581222000000000207e+03,1.432758762584178669e-01,2.141773622637649366e-01
3.583150000000000091e+03,1.418871455191821340e-01,1.740975507244412190e-01
3.585079000000000178e+03,1.404929491830531063e-01,1.359207159893073280e-01
3.587007000000000062e+03,1.390947327620430940e-01,9.566257130350031002e-02
3.588935999999999694e+03,1.376910458241820123e-01,7.975678227907978535e-02
3.590864000000000033e+03,1.362833437213977206e-01,7.573551545312706690e-02
3.592792999999999665e+03,1.348701661818028086e-01,7.087106121037523021e-02
3.594720999999999549e+03,1.334529783972433492e-01,7.053681909850573195e-02
3.596650000000000091e+03,1.320303102559154951e-01,7.446528411724873120e-02
3.598577999999999975e+03,1.306036367895844208e-01,7.876643586461262725e-02
3.600507000000000062e+03,1.291714780465218482e-01,7.675911400789148242e-02
3.602434999999999945e+03,1.277353188984156063e-01,7.915755480694819379e-02
3.604364000000000033e+03,1.262936695536200915e-01,8.242715283005563887e-02
3.606291999999999916e+03,1.248480247237413465e-01,7.304809523297539631e-02
3.608220999999999549e+03,1.233968847772128896e-01,5.370776818305900147e-02
3.610149000000000342e+03,1.219417542655589770e-01,3.091340109075579878e-02
3.612077999999999975e+03,1.204811237172975780e-01,1.260590673563155573e-02
3.614005999999999858e+03,1.190165075238711623e-01,1.449253560489671688e-02
3.615934999999999945e+03,1.175463863738759329e-01,1.423441436812444838e-02
3.617862999999999829e+03,1.160722844986761260e-01,-4.075758883806956945e-04
