wavenumber (/cm),baseline value (/cm),baseline-subtracted absorbance (/cm),
3.290019000000000233e+03,2.787641057350427332e-01,1.332267629550187849e-15
3.291947000000000116e+03,2.787726591827119904e-01,-5.493945316580983729e-03
3.293875000000000000e+03,2.787715618839818887e-01,-5.505987606658990785e-03
3.295804000000000087e+03,2.787608057600525768e-01,-4.413920615517152868e-03
3.297731999999999971e+03,2.787404019629455831e-01,-2.246353423758673529e-03
3.299660999999999603e+03,2.787103293268966553e-01,-4.878979813834227741e-03
3.301589000000000397e+03,2.786706190314127696e-01,-6.105307545865912289e-03
3.303518000000000029e+03,2.786212298832442258e-01,-6.959458357506331794e-03
3.305447000000000116e+03,2.785621799749318228e-01,-8.961005141108646654e-03
3.307375000000000000e+03,2.784935074290952883e-01,-9.297341097358913231e-03
3.309302999999999884e+03,2.784151841368593949e-01,-1.186007515556353198e-02
3.311231999999999971e+03,2.783271619644480666e-01,-1.506390643809130125e-02
3.313159999999999854e+03,2.782295321738370575e-01,-1.694107955364820839e-02
3.315089000000000397e+03,2.781221934893078895e-01,-1.658254284778681864e-02
3.317017000000000280e+03,2.780052572003182121e-01,-1.414762850963935392e-02
3.318945999999999913e+03,2.778786020036676518e-01,-1.534034261272587685e-02
3.320875000000000000e+03,2.777422860468714561e-01,-1.395576571915446706e-02
3.322802999999999884e+03,2.775963875075309062e-01,-1.559298667278019579e-02
3.324730999999999767e+03,2.774408382217909974e-01,-1.922550354873475698e-02
3.326659999999999854e+03,2.772755500008994289e-01,-1.618573704681036673e-02
3.328587999999999738e+03,2.771006942167826281e-01,-1.295554040630131354e-02
3.330517000000000280e+03,2.769160894837696674e-01,-1.285054612312608313e-02
3.332445000000000164e+03,2.767219272012777509e-01,-1.302738399521796708e-02
3.334374000000000251e+03,2.765180059561433978e-01,-1.241613549703091124e-02
3.336302000000000135e+03,2.763045371752745893e-01,-9.702280257667617036e-03
3.338230999999999767e+03,2.760812994180223967e-01,-1.067551799894639331e-02
3.340159000000000106e+03,2.758485241387766962e-01,-1.404067130217123704e-02
3.342087999999999738e+03,2.756059698694048876e-01,-1.235276226390169541e-02
3.344015999999999622e+03,2.753538880917822951e-01,-1.342082270300526403e-02
3.345945000000000164e+03,2.750920173102873179e-01,-1.673987633022822052e-02
3.347873000000000047e+03,2.748206290342896096e-01,-1.521404378154578296e-02
3.349802000000000135e+03,2.745394417406767928e-01,-1.553264007117549639e-02
3.351730000000000018e+03,2.742487469663021926e-01,-1.708612523187635901e-02
3.353659000000000106e+03,2.739482431605679835e-01,-1.341802210630893555e-02
3.355586999999999989e+03,2.736382418878164913e-01,-1.187908282149985340e-02
3.357515999999999622e+03,2.733184215699626662e-01,-9.549678332986477614e-03
3.359444000000000415e+03,2.729891137988342820e-01,-9.125301772245908438e-03
3.361373000000000047e+03,2.726499769688608410e-01,-1.353187525298515936e-02
3.363302000000000135e+03,2.723011793787435408e-01,-1.622141434550750105e-02
3.365230000000000018e+03,2.719429093572625078e-01,-2.167548007916675346e-02
3.367157999999999902e+03,2.715749885893821158e-01,-2.213380757222305206e-02
3.369086999999999989e+03,2.711972187351676666e-01,-2.093519987599279375e-02
3.371014999999999873e+03,2.708099914689103827e-01,-2.183951689787866357e-02
3.372944000000000415e+03,2.704129051025780939e-01,-2.270228522315287378e-02
3.374872000000000298e+03,2.700063713379421415e-01,-1.546161944429558233e-02
3.376800999999999931e+03,2.695899684594866841e-01,-1.496328736503604873e-02
3.378729000000000269e+03,2.691641281964773924e-01,-1.428934074864951498e-02
3.380657999999999902e+03,2.687284088059023190e-01,-1.368744420550038754e-02
3.382585999999999785e+03,2.682832620445179117e-01,-1.597610483320233143e-02
3.384514999999999873e+03,2.678282261418214460e-01,-1.441579763664302405e-02
3.386442999999999756e+03,2.673637728820601467e-01,-8.446629583249709583e-03
3.388372000000000298e+03,2.668894204672440651e-01,-4.324881898686072645e-03
3.390300000000000182e+03,2.664056607091040974e-01,-1.077264169534597471e-02
3.392229000000000269e+03,2.659119917821666235e-01,-1.164626292144621544e-02
3.394157000000000153e+03,2.654089255256533164e-01,-6.551296834974795757e-03
3.396085999999999785e+03,2.648959400865962266e-01,-7.490622417713588277e-03
3.398014000000000124e+03,2.643735673317060275e-01,-5.124069727748370440e-03
3.399942999999999756e+03,2.638412653805293218e-01,-8.314135994225146931e-03
3.401870999999999640e+03,2.632995861272622307e-01,-1.430128654463702631e-02
3.403800000000000182e+03,2.627479676639623563e-01,-1.194258816172055759e-02
3.405728000000000065e+03,2.621869819123201495e-01,-1.092790013770228441e-02
3.407657000000000153e+03,2.616160469369024355e-01,-1.589182371847597253e-02
3.409585000000000036e+03,2.610357546868833367e-01,-1.242082193066140761e-02
3.411514000000000124e+03,2.604455031993442304e-01,-4.133863069494037035e-03
3.413442000000000007e+03,2.598459044509482396e-01,4.335576458002421418e-03
3.415370999999999640e+03,2.592363364512912938e-01,-4.324448988004547800e-03
3.417299000000000433e+03,2.586174312045166346e-01,-1.225632438738921692e-02
3.419228000000000065e+03,2.579885466927382964e-01,-1.632213766506751540e-02
3.421155999999999949e+03,2.573503349475902979e-01,-1.422852323016821074e-02
3.423085000000000036e+03,2.567021339236905675e-01,-1.109075658561664568e-02
3.425012999999999920e+03,2.560446156801656770e-01,-6.163644896427289410e-03
3.426942000000000007e+03,2.553770981441463306e-01,-1.173975559511486466e-03
3.428869999999999891e+03,2.547002734022463244e-01,-6.849696458695042622e-04
3.430799000000000433e+03,2.540134393541073621e-01,-1.739517573306592624e-03
3.432727000000000317e+03,2.533173081138269112e-01,-3.263976841604954160e-03
3.434655999999999949e+03,2.526111575535683329e-01,7.572146832539594641e-04
3.436584000000000287e+03,2.518957198149127663e-01,-1.126003219460436355e-04
3.438512999999999920e+03,2.511702527425345721e-01,-1.161750655658266851e-03
3.440440999999999804e+03,2.504355085055038899e-01,1.689125796713319971e-04
3.442369999999999891e+03,2.496907249210025270e-01,-3.217545140510758017e-03
3.444297999999999774e+03,2.489366741855967291e-01,-4.959243361666754168e-03
3.446227000000000317e+03,2.481725740889775267e-01,-1.023703536583608908e-02
3.448155000000000200e+03,2.473992168551912840e-01,-1.118109968097558138e-02
3.450084000000000287e+03,2.466158002464542420e-01,-1.544691883491822182e-03
3.452012000000000171e+03,2.458231365142911073e-01,9.469799024432568046e-03
3.453940999999999804e+03,2.450204033934308967e-01,1.052218433264773267e-02
3.455869000000000142e+03,2.442084331628944227e-01,6.370481661653659700e-03
3.457797999999999774e+03,2.433863835299128198e-01,1.069925567243723563e-02
3.459725999999999658e+03,2.425551068010030065e-01,1.572747165007148951e-02
3.461655000000000200e+03,2.417137406558982349e-01,1.347639692332602834e-02
3.463583000000000084e+03,2.408631574286115296e-01,1.475363032838350463e-02
3.465512000000000171e+03,2.400024747713889184e-01,1.652171753035824864e-02
3.467440000000000055e+03,2.391325850457235447e-01,2.494068748480682274e-02
3.469369000000000142e+03,2.382525858763813176e-01,2.785268541748164850e-02
3.471297000000000025e+03,2.373633896523408282e-01,3.461141325382754985e-02
3.473225999999999658e+03,2.364640739708789852e-01,3.685483157866498161e-02
3.475154000000000451e+03,2.355555712484598274e-01,3.701360482203019941e-02
3.477083000000000084e+03,2.346369390548765921e-01,5.189189074880307118e-02
3.479010999999999967e+03,2.337091298340840950e-01,5.885386290049687830e-02
3.480940000000000055e+03,2.327711811283794674e-01,5.446486771997438581e-02
3.482867999999999938e+03,2.318240654092100783e-01,5.109446914017956587e-02
3.484797000000000025e+03,2.308668001913858348e-01,5.102607351397869806e-02
3.486724999999999909e+03,2.299003779738413300e-01,5.207519784931502471e-02
3.488654000000000451e+03,2.289237962438974705e-01,5.742880848635500968e-02
3.490582000000000335e+03,2.279380675279725210e-01,6.251872641235856065e-02
3.492510999999999967e+03,2.269421692859090456e-01,6.248509922545331108e-02
3.494439000000000306e+03,2.259371340716089804e-01,5.865631159232664871e-02
3.496367999999999938e+03,2.249219193174258891e-01,6.159995423335473674e-02
3.498295999999999822e+03,2.238975776047507082e-01,6.422191536170496207e-02
3.500224999999999909e+03,2.228630463384462246e-01,5.867428555210896235e-02
3.502152999999999793e+03,2.218193981273941517e-01,5.341943322211939460e-02
3.504082000000000335e+03,2.207655503489718285e-01,5.008929584054744311e-02
3.506010000000000218e+03,2.197025956395410873e-01,6.592810462325093823e-02
3.507939000000000306e+03,2.186294313489973717e-01,7.536964115061683955e-02
3.509867000000000189e+03,2.175471701411915149e-01,7.940367233832601457e-02
3.511795999999999822e+03,2.164546893385264070e-01,9.582232411022939544e-02
3.513724000000000160e+03,2.153531216323454345e-01,1.101276327346356609e-01
3.515652999999999793e+03,2.142413243175589344e-01,1.213198134162483122e-01
3.517580999999999676e+03,2.131204501130028461e-01,1.315301914080979628e-01
3.519510000000000218e+03,2.119893362860949537e-01,1.424518447310640923e-01
3.521438000000000102e+03,2.108491555831619735e-01,1.451850073477394254e-01
3.523367000000000189e+03,2.096987252441344651e-01,1.445306765181166853e-01
3.525295000000000073e+03,2.085392380428263692e-01,1.539851088423183079e-01
3.527224000000000160e+03,2.073694911916792449e-01,1.478036422137929407e-01
3.529152000000000044e+03,2.061906974919942570e-01,1.429204479709831332e-01
3.531080999999999676e+03,2.050016341287275168e-01,1.437106861680730319e-01
3.533009000000000015e+03,2.038035339306638605e-01,1.434286503327464324e-01
3.534938000000000102e+03,2.025951540552757280e-01,1.383014296516344999e-01
3.536865999999999985e+03,2.013777473588387323e-01,1.350142761378378964e-01
3.538795000000000073e+03,2.001500509713292075e-01,1.411963704230134731e-01
3.540722999999999956e+03,1.989133377765153199e-01,1.420388959535823226e-01
3.542652000000000044e+03,1.976663248768879555e-01,1.240217258264664224e-01
3.544579999999999927e+03,1.964103051836971758e-01,9.968105360436929629e-02
3.546509000000000015e+03,1.951439757719484192e-01,8.707275015168747245e-02
3.548436999999999898e+03,1.938686495803807475e-01,1.047524665117514076e-01
3.550365999999999985e+03,1.925830036565123748e-01,1.148385452691331743e-01
3.552294000000000324e+03,1.912883709665678111e-01,9.908958544091461818e-02
3.554222999999999956e+03,1.899834085305780462e-01,1.177635384473170177e-01
3.556150999999999840e+03,1.886694693422601432e-01,1.418422017042697547e-01
3.558079999999999927e+03,1.873451903941489860e-01,1.596242020930982441e-01
3.560007999999999811e+03,1.860119447074541910e-01,1.810602457392920250e-01
3.561936999999999898e+03,1.846683492472234178e-01,1.959051551584036766e-01
3.563864999999999782e+03,1.833157970621517308e-01,1.908850067715168741e-01
3.565794000000000324e+03,1.819528850898031180e-01,1.651757282971191287e-01
3.567722000000000207e+03,1.805810264063509862e-01,1.883268418885943873e-01
3.569650999999999840e+03,1.791987979218809812e-01,2.632621697701891250e-01
3.571579000000000178e+03,1.778076327400555101e-01,3.092568285368035852e-01
3.573507999999999811e+03,1.764060877434658892e-01,3.066801697924748105e-01
3.575435999999999694e+03,1.749956160632653024e-01,2.690560147915812550e-01
3.577364999999999782e+03,1.735747545545542891e-01,2.207574451671958649e-01
3.579292999999999665e+03,1.721449763759768103e-01,1.674013213516474252e-01
3.581222000000000207e+03,1.707047983551426285e-01,1.223404945803960864e-01
3.583150000000000091e+03,1.692557136781900340e-01,9.196163057903739002e-02
3.585079000000000178e+03,1.677962191452380125e-01,5.815369583389351504e-02
3.587007000000000062e+03,1.663278279699067497e-01,5.398868582883409317e-03
3.588935999999999694e+03,1.648490169248368886e-01,2.186531295613436399e-02
3.590864000000000033e+03,1.633613192511287338e-01,5.199035797873685638e-02
3.592792999999999665e+03,1.618631916939374804e-01,3.225181835398371888e-02
3.594720999999999549e+03,1.603561875218542099e-01,2.050638783755243111e-02
3.596650000000000091e+03,1.588387434525397879e-01,3.275810304614656943e-02
3.598577999999999975e+03,1.573124327820814017e-01,3.832445081662028130e-02
3.600507000000000062e+03,1.557756722006491401e-01,4.167679340454499837e-02
3.602434999999999945e+03,1.542300550318138619e-01,4.918546514131971747e-02
3.604364000000000033e+03,1.526739779382602080e-01,5.301546401567414080e-02
3.606291999999999916e+03,1.511090542710480378e-01,2.993438366371758974e-02
3.608220999999999549e+03,1.495336606653765443e-01,3.226425901326379631e-03
3.610149000000000342e+03,1.479494304997857057e-01,1.206216325504527731e-02
3.612077999999999975e+03,1.463547203819928200e-01,9.199743157970452501e-04
3.614005999999999858e+03,1.447511837180286420e-01,-1.878503748213411484e-02
3.615934999999999945e+03,1.431371570881143640e-01,-3.930169918536119411e-03
3.617862999999999829e+03,1.415143139257732940e-01,-8.401777212216021695e-03
