wavenumber (/cm),baseline value (/cm),baseline-subtracted absorbance (/cm),
3.290019000000000233e+03,2.142010251630885875e-01,5.523359547510153789e-15
3.291947000000000116e+03,2.146688722358476298e-01,4.219431585214789004e-03
3.293875000000000000e+03,2.151236937297866803e-01,5.381292290716543913e-03
3.295804000000000087e+03,2.155657154124099861e-01,8.691125221327172801e-03
3.297731999999999971e+03,2.159944789927088493e-01,8.398335545967750004e-03
3.299660999999999603e+03,2.164104292461743739e-01,1.117072639222260744e-02
3.301589000000000397e+03,2.168131349128259444e-01,1.259624066965306377e-02
3.303518000000000029e+03,2.172030137371372405e-01,1.783169269343123919e-02
3.305447000000000116e+03,2.175798534671109508e-01,1.542076163074551642e-02
3.307375000000000000e+03,2.179434688852950330e-01,9.706503155711476705e-03
3.309302999999999884e+03,2.182940587246626762e-01,7.587441741320533062e-03
3.311231999999999971e+03,2.186317946906548570e-01,5.645912671880054523e-03
3.313159999999999854e+03,2.189563266163787603e-01,1.279423616612818115e-03
3.315089000000000397e+03,2.192679911532131598e-01,8.145746032248130097e-03
3.317017000000000280e+03,2.195664651652933230e-01,1.012996540320618144e-02
3.318945999999999913e+03,2.198520582729663886e-01,4.179181242411039721e-03
3.320875000000000000e+03,2.201246122863089738e-01,-8.503625193005959204e-04
3.322802999999999884e+03,2.203839960499252015e-01,2.016264900680547756e-03
3.324730999999999767e+03,2.206303542347178848e-01,9.139226380379950054e-03
3.326659999999999854e+03,2.208638044840789405e-01,1.966138097724443035e-02
3.328587999999999738e+03,2.210841047552278837e-01,2.085833140507031835e-02
3.330517000000000280e+03,2.212914835754276055e-01,1.799932723538319457e-02
3.332445000000000164e+03,2.214857259329399142e-01,4.451664561002266485e-03
3.334374000000000251e+03,2.216670333239818547e-01,1.231429950368512216e-05
3.336302000000000135e+03,2.218352177678504233e-01,1.321995652466434468e-03
3.338230999999999767e+03,2.219904537297310299e-01,3.417579821061111911e-03
3.340159000000000106e+03,2.221325802599594113e-01,1.444129898474866280e-03
3.342087999999999738e+03,2.222617447926822365e-01,1.041535729218945328e-03
3.344015999999999622e+03,2.223778134092633252e-01,1.335467112637878095e-03
3.345945000000000164e+03,2.224809065128319219e-01,3.696922005341413131e-03
3.347873000000000047e+03,2.225709172157692706e-01,1.045523376279547390e-02
3.349802000000000135e+03,2.226479388901765333e-01,1.107838916201356327e-02
3.351730000000000018e+03,2.227118916794736947e-01,6.785992756686565208e-03
3.353659000000000106e+03,2.227628419247267288e-01,1.430790364843262386e-02
3.355586999999999989e+03,2.228007368003765976e-01,1.865432843727482526e-02
3.357515999999999622e+03,2.228256156164682977e-01,2.489514207225487774e-02
3.359444000000000415e+03,2.228374525784779792e-01,2.418687826961146703e-02
3.361373000000000047e+03,2.228362599654118981e-01,1.709326007186673380e-02
3.363302000000000135e+03,2.228220282580117839e-01,1.151936037199752239e-02
3.365230000000000018e+03,2.227947749715575299e-01,7.421431924994170704e-03
3.367157999999999902e+03,2.227544961062797313e-01,1.250350119256116166e-03
3.369086999999999989e+03,2.227011606348980877e-01,-9.969667858766850799e-04
3.371014999999999873e+03,2.226348238559765491e-01,-3.741617891391296746e-03
3.372944000000000415e+03,2.225554169554371242e-01,-1.373896774760863249e-02
3.374872000000000298e+03,2.224630222628753984e-01,-1.462278927126312023e-02
3.376800999999999931e+03,2.223575439331781922e-01,-1.430453368154727123e-02
3.378729000000000269e+03,2.222390913269727264e-01,-2.747875581905104281e-02
3.380657999999999902e+03,2.221075415681141862e-01,-3.509961053363144790e-02
3.382585999999999785e+03,2.219630310482649804e-01,-4.042118575469555442e-02
3.384514999999999873e+03,2.218054098602486590e-01,-3.934531666360374658e-02
3.386442999999999756e+03,2.216348414267628186e-01,-2.835880228417198001e-02
3.388372000000000298e+03,2.214511488095887159e-01,-2.196652625600067910e-02
3.390300000000000182e+03,2.212545224624520301e-01,-2.867169860411095117e-02
3.392229000000000269e+03,2.210447584161201462e-01,-3.247633343941933037e-02
3.394157000000000153e+03,2.208220741553432731e-01,-2.874233510594909058e-02
3.396085999999999785e+03,2.205862386798536079e-01,-2.960928621014252693e-02
3.398014000000000124e+03,2.203374965054365475e-01,-3.507306966480283617e-02
3.399942999999999756e+03,2.200755896007891010e-01,-3.340979276947503296e-02
3.401870999999999640e+03,2.198007895127247480e-01,-3.883232725736596169e-02
3.403800000000000182e+03,2.195128111789159675e-01,-3.660035078749007686e-02
3.405728000000000065e+03,2.192119531772149799e-01,-3.691225140647874658e-02
3.407657000000000153e+03,2.188979034142448654e-01,-2.829751198833621584e-02
3.409585000000000036e+03,2.185709874989001378e-01,-2.017440781576873565e-02
3.411514000000000124e+03,2.182308663067757948e-01,-2.259957087341141202e-02
3.413442000000000007e+03,2.178778924777837744e-01,-2.600703506865051362e-02
3.415370999999999640e+03,2.175116998565052029e-01,-3.726197944643999671e-02
3.417299000000000433e+03,2.171326681138729953e-01,-3.867543605422718578e-02
3.419228000000000065e+03,2.167404040634295370e-01,-2.931548328057775876e-02
3.421155999999999949e+03,2.163353144071535894e-01,-3.198885587966060484e-02
3.423085000000000036e+03,2.159169789275559026e-01,-3.162614015775164211e-02
3.425012999999999920e+03,2.154858313576362150e-01,-2.929896276490556728e-02
3.426942000000000007e+03,2.150414244488807469e-01,-1.931717468187238440e-02
3.428869999999999891e+03,2.145842189653173193e-01,-1.611718261862582491e-02
3.430799000000000433e+03,2.141137406274040700e-01,-1.513001276160724773e-02
3.432727000000000317e+03,2.136304772301969024e-01,-1.454669344641312811e-02
3.434655999999999949e+03,2.131339274631258718e-01,-1.360690043609885658e-02
3.436584000000000287e+03,2.126246061522749642e-01,-6.215100094493053451e-03
3.438512999999999920e+03,2.121019849560461523e-01,-1.819701638245629916e-03
3.440440999999999804e+03,2.115666057315550574e-01,1.236086207282438565e-04
3.442369999999999891e+03,2.110179131061649116e-01,5.414556604925457872e-03
3.444297999999999774e+03,2.104564759680300767e-01,-2.846429369707637047e-03
3.446227000000000317e+03,2.098817119134821496e-01,-1.647042579978225119e-02
3.448155000000000200e+03,2.092942168617071275e-01,-1.750405842741079021e-02
3.450084000000000287e+03,2.086933813780014191e-01,-4.055916326743291833e-03
3.452012000000000171e+03,2.080798284125826569e-01,2.138838875394954986e-03
3.453940999999999804e+03,2.074529214997191673e-01,4.471374865611665861e-03
3.455869000000000142e+03,2.068133106206531124e-01,-1.062611645816224915e-03
3.457797999999999774e+03,2.061603322786318415e-01,2.802277227425931105e-03
3.459725999999999658e+03,2.054946634859255994e-01,1.599910165852916344e-02
3.461655000000000200e+03,2.048156137147429945e-01,2.258307221256358743e-02
3.463583000000000084e+03,2.041238870083965651e-01,2.572591727864909084e-02
3.465512000000000171e+03,2.034187658080597316e-01,3.256149514254602639e-02
3.467440000000000055e+03,2.027009811880660095e-01,3.727414276347171262e-02
3.469369000000000142e+03,2.019697885585678421e-01,4.440576316557007241e-02
3.471297000000000025e+03,2.012259460249339327e-01,5.857105304309961902e-02
3.473225999999999658e+03,2.004686819662779840e-01,6.491420712971451845e-02
3.475154000000000451e+03,1.996987815190038873e-01,6.773144215294391035e-02
3.477083000000000084e+03,1.989154460311901573e-01,9.364337037141934328e-02
3.479010999999999967e+03,1.981194876702687679e-01,1.022275393567582125e-01
3.480940000000000055e+03,1.973100807532972567e-01,9.957579063533272823e-02
3.482867999999999938e+03,1.964880644787356800e-01,1.024167444681421957e-01
3.484797000000000025e+03,1.956525861326028348e-01,1.111704520780215644e-01
3.486724999999999909e+03,1.948045119443975182e-01,1.104390295281094669e-01
3.488654000000000451e+03,1.939429621691104444e-01,1.147322288840116333e-01
3.490582000000000335e+03,1.930688300672613877e-01,1.219152239867926646e-01
3.492510999999999967e+03,1.921812088628129800e-01,1.249416988725084998e-01
3.494439000000000306e+03,1.912810188473237361e-01,1.176985058497871384e-01
3.496367999999999938e+03,1.903673262137175470e-01,1.216436243920606119e-01
3.498295999999999822e+03,1.894410782845845631e-01,1.380643364404853246e-01
3.500224999999999909e+03,1.885013142218205928e-01,1.525912766449081803e-01
3.502152999999999793e+03,1.875490083790438689e-01,1.587879906889896331e-01
3.504082000000000335e+03,1.865831728871185646e-01,1.734942735248105605e-01
3.506010000000000218e+03,1.856048091307016534e-01,1.869237090426441039e-01
3.507939000000000306e+03,1.846129022096221206e-01,1.869933419655875340e-01
3.509867000000000189e+03,1.836084805395579167e-01,1.990034486309919526e-01
3.511795999999999822e+03,1.825905021893206026e-01,2.270323309886849716e-01
3.513724000000000160e+03,1.815600226056126587e-01,2.483755785127470528e-01
3.515652999999999793e+03,1.805159728262175634e-01,2.736802993079855972e-01
3.517580999999999676e+03,1.794594353288694322e-01,2.960323633663775045e-01
3.519510000000000218e+03,1.783893141203165555e-01,3.172157184985091583e-01
3.521438000000000102e+03,1.773067187093211317e-01,3.336992458759537872e-01
3.523367000000000189e+03,1.762105260716104738e-01,3.410039194083521741e-01
3.525295000000000073e+03,1.751018727469748626e-01,3.427792083341062446e-01
3.527224000000000160e+03,1.739796086801028707e-01,3.263404285985550546e-01
3.529152000000000044e+03,1.728448974418270723e-01,3.078817567986202874e-01
3.531080999999999676e+03,1.716965619457972991e-01,3.014820028258708984e-01
3.533009000000000015e+03,1.705357927938777607e-01,2.890780003095704820e-01
3.534938000000000102e+03,1.693613858686866536e-01,2.783881015497662315e-01
3.536865999999999985e+03,1.681745588031233751e-01,2.887812659871841214e-01
3.538795000000000073e+03,1.669740804487780395e-01,3.125182774263384200e-01
3.540722999999999956e+03,1.657611954695745737e-01,3.433075836543769688e-01
3.542652000000000044e+03,1.645346456860714568e-01,3.648441054788865712e-01
3.544579999999999927e+03,1.632957027932206984e-01,3.605839803381865050e-01
3.546509000000000015e+03,1.620430815805562474e-01,3.420343648313728391e-01
3.548436999999999898e+03,1.607780807740653017e-01,3.271344075763540915e-01
3.550365999999999985e+03,1.594993881322430695e-01,3.230396612619786945e-01
3.552294000000000324e+03,1.582083294121083838e-01,3.232509436540611514e-01
3.554222999999999956e+03,1.569035653411319231e-01,3.526731354976379018e-01
3.556150999999999840e+03,1.555864487073534974e-01,3.762002241724228258e-01
3.558079999999999927e+03,1.542556132072157027e-01,4.114203420583947279e-01
3.560007999999999811e+03,1.529124386597970897e-01,4.528171046766427121e-01
3.561936999999999898e+03,1.515555317304979610e-01,4.697758755388403706e-01
3.563864999999999782e+03,1.501862992694356080e-01,4.528091340949632615e-01
3.565794000000000324e+03,1.488033209109822508e-01,4.237415998718695453e-01
3.567722000000000207e+03,1.474080305362761578e-01,4.217084652698748215e-01
3.569650999999999840e+03,1.459989807486650193e-01,4.828704507518009059e-01
3.571579000000000178e+03,1.445776324603151863e-01,5.221048465704396513e-01
3.573507999999999811e+03,1.431425112435427138e-01,5.166000796231859926e-01
3.575435999999999694e+03,1.416951050415526936e-01,4.553406824700968469e-01
3.577364999999999782e+03,1.402339123956224398e-01,3.642451183592703146e-01
3.579292999999999665e+03,1.387604482799886796e-01,2.796441183556124255e-01
3.581222000000000207e+03,1.372731842049006445e-01,2.273941969693770715e-01
3.583150000000000091e+03,1.357736621756231443e-01,1.899880526426433458e-01
3.585079000000000178e+03,1.342603266713808807e-01,1.498479398710235722e-01
3.587007000000000062e+03,1.327347467284560878e-01,1.033304722836594636e-01
3.588935999999999694e+03,1.311953397950560429e-01,8.352193886291225944e-02
3.590864000000000033e+03,1.296437019384910627e-01,8.329636329916034754e-02
3.592792999999999665e+03,1.280782235759296839e-01,7.698078853963413737e-02
3.594720999999999549e+03,1.265005278057245164e-01,7.805354488765850474e-02
3.596650000000000091e+03,1.249089780140018036e-01,8.812628759643620358e-02
3.598577999999999975e+03,1.233052243301528961e-01,7.212186793452554645e-02
3.600507000000000062e+03,1.216876031092759547e-01,7.174500639678180192e-02
3.602434999999999945e+03,1.200577915117797545e-01,9.537181706231157019e-02
3.604364000000000033e+03,1.184140988617450319e-01,1.033799738316379946e-01
3.606291999999999916e+03,1.167582293506121971e-01,8.678248826355366985e-02
3.608220999999999549e+03,1.150884652714161405e-01,5.161475001283361008e-02
3.610149000000000342e+03,1.134065378466360130e-01,2.226335963705455834e-02
3.612077999999999975e+03,1.117107023382857278e-01,1.312638992639272861e-02
3.614005999999999858e+03,1.100027169998618604e-01,9.276220558386005788e-03
3.615934999999999945e+03,1.082808100623502412e-01,2.540576962078114343e-02
3.617862999999999829e+03,1.065467668102897392e-01,1.323440746743623220e-02
