wavenumber (/cm),baseline value (/cm),baseline-subtracted absorbance (/cm),
3.290019000000000233e+03,6.633493942218322559e-01,-2.420286193682841258e-14
3.291947000000000116e+03,6.642715200109279294e-01,-7.606561949418111368e-03
3.293875000000000000e+03,6.651571779788056915e-01,-6.923720383279152735e-03
3.295804000000000087e+03,6.660067991144629218e-01,-2.572129962552405225e-03
3.297731999999999971e+03,6.668195025250795993e-01,-6.128822189571669909e-03
3.299660999999999603e+03,6.675961312639770995e-01,-8.893801347854113359e-03
3.301589000000000397e+03,6.683358801173113761e-01,-8.522739390377509494e-03
3.303518000000000029e+03,6.690395164594420407e-01,-7.065797913309745937e-03
3.305447000000000116e+03,6.697066471408490429e-01,-5.992481250821080074e-03
3.307375000000000000e+03,6.703369547008719564e-01,-1.352884659276387680e-02
3.309302999999999884e+03,6.709307944396698531e-01,-2.168289136418055651e-02
3.311231999999999971e+03,6.714884459882597412e-01,-2.293513750736508872e-02
3.313159999999999854e+03,6.720093311697894478e-01,-2.436245325739427869e-02
3.315089000000000397e+03,6.724939903216053949e-01,-2.118457746046842338e-02
3.317017000000000280e+03,6.729419209458669116e-01,-2.081302998594147802e-02
3.318945999999999913e+03,6.733535877009160231e-01,-1.626849916410333385e-02
3.320875000000000000e+03,6.737287487952414722e-01,-1.034133034230577675e-02
3.322802999999999884e+03,6.740672381261916257e-01,-1.289044409077688691e-02
3.324730999999999767e+03,6.743692596359238678e-01,-1.695136588009915624e-02
3.326659999999999854e+03,6.746349415974250974e-01,-2.332096210068701492e-02
3.328587999999999738e+03,6.748640085498891494e-01,-2.879839811186490905e-02
3.330517000000000280e+03,6.750566981146164380e-01,-2.796900007174596414e-02
3.332445000000000164e+03,6.752128105098123001e-01,-2.417236316591664380e-02
3.334374000000000251e+03,6.753325076777798586e-01,-3.136046667125613752e-02
3.336302000000000135e+03,6.754156655157075306e-01,-3.638509701617353986e-02
3.338230999999999767e+03,6.754623702868869373e-01,-3.207066478828490830e-02
3.340159000000000106e+03,6.754725735675464193e-01,-2.937769938301704187e-02
3.342087999999999738e+03,6.754462859419732013e-01,-3.226492527095736751e-02
3.344015999999999622e+03,6.753835346653573879e-01,-2.559304072313928202e-02
3.345945000000000164e+03,6.752842546430102288e-01,-1.427875604095985018e-02
3.347873000000000047e+03,6.751485488091262255e-01,-1.760167089673114749e-02
3.349802000000000135e+03,6.749762763900122309e-01,-3.117888589606998551e-02
3.351730000000000018e+03,6.747676159988600375e-01,-3.439697294201016220e-02
3.353659000000000106e+03,6.745223511829792074e-01,-3.396177336378070066e-02
3.355586999999999989e+03,6.742407362345588240e-01,-3.871221806121305509e-02
3.357515999999999622e+03,6.739224790219111583e-01,-3.513608573206961072e-02
3.359444000000000415e+03,6.735679095162154795e-01,-2.185756468862931623e-02
3.361373000000000047e+03,6.731766599067938728e-01,-2.290890594593653073e-02
3.363302000000000135e+03,6.727489046366557091e-01,-2.185309848567718038e-02
3.365230000000000018e+03,6.722848938376415617e-01,-3.407221909393232107e-02
3.367157999999999902e+03,6.717844152174023975e-01,-4.321787281292888139e-02
3.369086999999999989e+03,6.712471808144400143e-01,-3.699713421611749986e-02
3.371014999999999873e+03,6.706737476369397655e-01,-2.397067214765735699e-02
3.372944000000000415e+03,6.700635208372176521e-01,-2.090993276638819509e-02
3.374872000000000298e+03,6.694171331024421079e-01,-2.983577243142621072e-02
3.376800999999999931e+03,6.687339139059389481e-01,-3.743465947909829783e-02
3.378729000000000269e+03,6.680145716139023193e-01,-4.306443181893493399e-02
3.380657999999999902e+03,6.672583600206323240e-01,-4.756348583610292557e-02
3.382585999999999785e+03,6.664660631713203998e-01,-3.933223278921416100e-02
3.384514999999999873e+03,6.656368591812906743e-01,-3.784524687933354947e-02
3.386442999999999756e+03,6.647716077747034547e-01,-4.094914738327759540e-02
3.388372000000000298e+03,6.638694113878997882e-01,-4.238898268333324282e-02
3.390300000000000182e+03,6.629312054240514840e-01,-4.895450458528172177e-02
3.392229000000000269e+03,6.619560166404809820e-01,-6.024091878400372746e-02
3.394157000000000153e+03,6.609448561193573823e-01,-4.727896609139836670e-02
3.396085999999999785e+03,6.598966749390129394e-01,-3.990245313099805013e-02
3.398014000000000124e+03,6.588125598606282551e-01,-3.579876675717996726e-02
3.399942999999999756e+03,6.576913862835098712e-01,-1.647535646058351233e-02
3.401870999999999640e+03,6.565343166478641024e-01,-2.149666520331605657e-02
3.403800000000000182e+03,6.553401506739646720e-01,-3.519252718841014982e-02
3.405728000000000065e+03,6.541101264810507132e-01,-3.399428305141416473e-02
3.407657000000000153e+03,6.528429681103915527e-01,-2.566048907963669468e-02
3.409585000000000036e+03,6.515399893602022985e-01,-2.448621489608293622e-02
3.411514000000000124e+03,6.501998385927691970e-01,-2.266060280525761250e-02
3.413442000000000007e+03,6.488239052853046474e-01,-1.752539643162343008e-02
3.415370999999999640e+03,6.474107621211118158e-01,-1.084701561598599984e-02
3.417299000000000433e+03,6.459618742563861815e-01,-1.079113800289133174e-02
3.419228000000000065e+03,6.444757386954123035e-01,-3.041982070845983266e-02
3.421155999999999949e+03,6.429538962734184793e-01,-4.243413858469524680e-02
3.423085000000000036e+03,6.413947683156777657e-01,-3.130241044056125688e-02
3.425012999999999920e+03,6.397999713364157515e-01,-8.736877207804361056e-03
3.426942000000000007e+03,6.381678509819082024e-01,-4.916686023846761344e-03
3.428869999999999891e+03,6.365000994453779981e-01,-8.546231784613778082e-03
3.430799000000000433e+03,6.347949866940894026e-01,-9.650531894462188731e-03
3.432727000000000317e+03,6.330542806002910083e-01,-5.567037130589369553e-04
3.434655999999999949e+03,6.312761754522497881e-01,1.755486856812593643e-04
3.436584000000000287e+03,6.294625148011760984e-01,3.839069541787587525e-03
3.438512999999999920e+03,6.276114172563609372e-01,1.191738050691959483e-02
3.440440999999999804e+03,6.257248020480119521e-01,4.347506080923935201e-04
3.442369999999999891e+03,6.238007121064228500e-01,-1.925252944099886676e-02
3.444297999999999774e+03,6.218411423408127803e-01,-1.141290375740178220e-02
3.446227000000000317e+03,6.198440600024639480e-01,-2.332420911709587319e-02
3.448155000000000200e+03,6.178115356795714774e-01,-2.319038004117446317e-02
3.450084000000000287e+03,6.157414609444487041e-01,2.209517620322953846e-03
3.452012000000000171e+03,6.136359820643022545e-01,1.956029006990089858e-02
3.453940999999999804e+03,6.114929149324055402e-01,2.986635813376403714e-02
3.455869000000000142e+03,6.093144814949909005e-01,2.691366389177518581e-02
3.457797999999999774e+03,6.070984219663273507e-01,1.548275231139872865e-02
3.459725999999999658e+03,6.048470339716303101e-01,1.224690824644980580e-02
3.461655000000000200e+03,6.025579820461999248e-01,1.315888654653074585e-02
3.463583000000000084e+03,6.002336394942346942e-01,1.996496255609148118e-02
3.465512000000000171e+03,5.978715951720445787e-01,2.389541321565347154e-02
3.467440000000000055e+03,5.954742980628111582e-01,1.989401507791577206e-02
3.469369000000000142e+03,5.930392613438328908e-01,3.115263054805905707e-02
3.471297000000000025e+03,5.905690096773383857e-01,4.593537056497287718e-02
3.473225999999999658e+03,5.880609805616003882e-01,4.465010983914519116e-02
3.475154000000000451e+03,5.855177743378305877e-01,3.619173171995127003e-02
3.477083000000000084e+03,5.829367528253186492e-01,3.889381567421534847e-02
3.479010999999999967e+03,5.803205920442877641e-01,3.673961298833106071e-02
3.480940000000000055e+03,5.776665781350018847e-01,2.212195867767285939e-02
3.482867999999999938e+03,5.749774627967099150e-01,3.352235081000021211e-02
3.484797000000000025e+03,5.722504564906500946e-01,4.894348572743012493e-02
3.486724999999999909e+03,5.694883865950757240e-01,4.118626391750579430e-02
3.488654000000000451e+03,5.666883878922561735e-01,3.970890940504112621e-02
3.490582000000000335e+03,5.638533634394207184e-01,6.009668315890170920e-02
3.492510999999999967e+03,5.609803723398201214e-01,6.533118404415005909e-02
3.494439000000000306e+03,5.580723933297093708e-01,4.943785830123181846e-02
3.496367999999999938e+03,5.551264098333490438e-01,4.196799836795561678e-02
3.498295999999999822e+03,5.521454762659772086e-01,5.441463556999670548e-02
3.500224999999999909e+03,5.491265003728429406e-01,4.194777735315902145e-02
3.502152999999999793e+03,5.460726122481958100e-01,7.849382160005524689e-03
3.504082000000000335e+03,5.429806439582876010e-01,1.439186303146078316e-02
3.506010000000000218e+03,5.398538012763793859e-01,6.166912509827116029e-02
3.507939000000000306e+03,5.366888405897043413e-01,6.839727311020249445e-02
3.509867000000000189e+03,5.334890433505208307e-01,4.838243847613343807e-02
3.511795999999999822e+03,5.302510902670860560e-01,6.479904952788129169e-02
3.513724000000000160e+03,5.269783384706272500e-01,8.719976031781628834e-02
3.515652999999999793e+03,5.236673929904114289e-01,1.003463069163920141e-01
3.517580999999999676e+03,5.203216866366915383e-01,9.174038232882575361e-02
3.519510000000000218e+03,5.169377487597159870e-01,8.950586727010689803e-02
3.521438000000000102e+03,5.135190878487136956e-01,7.495770618670105634e-02
3.523367000000000189e+03,5.100621575749570979e-01,4.315284708487510112e-02
3.525295000000000073e+03,5.065705421067008274e-01,5.099283161184531288e-02
3.527224000000000160e+03,5.030406194361773942e-01,3.104726499998289313e-02
3.529152000000000044e+03,4.994760494106529336e-01,4.290475208049338018e-02
3.531080999999999676e+03,4.958731343433697702e-01,8.890226174237114698e-02
3.533009000000000015e+03,4.922356097605700143e-01,1.222066083195790798e-01
3.534938000000000102e+03,4.885597022965058045e-01,1.181918354481353850e-01
3.536865999999999985e+03,4.848492231564307531e-01,1.139362381669615232e-01
3.538795000000000073e+03,4.811003232956068132e-01,1.330118854648777438e-01
3.540722999999999956e+03,4.773168895982635718e-01,1.272479752666013653e-01
3.542652000000000044e+03,4.734949973406727963e-01,8.700668019893575966e-02
3.544579999999999927e+03,4.696386090860613649e-01,3.401991840694884583e-02
3.546509000000000015e+03,4.657437244316895431e-01,3.308153185908402349e-02
3.548436999999999898e+03,4.618143816198170271e-01,7.750444410245693749e-02
3.550365999999999985e+03,4.578465045686783697e-01,1.014789381153849979e-01
3.552294000000000324e+03,4.538442071995305582e-01,7.678747965974253020e-02
3.554222999999999956e+03,4.498033377516250653e-01,1.070449381104439102e-01
3.556150999999999840e+03,4.457280858252161693e-01,1.466331443704967930e-01
3.558079999999999927e+03,4.416142239805367353e-01,1.515247322170402144e-01
3.560007999999999811e+03,4.374660174968454385e-01,1.306901800800418512e-01
3.561936999999999898e+03,4.332791632554062744e-01,1.113100259337829190e-01
3.563864999999999782e+03,4.290580022144538930e-01,7.174889433727027477e-02
3.565794000000000324e+03,4.247981555762407879e-01,-4.847867747745232547e-02
3.567722000000000207e+03,4.205040399780060056e-01,-5.279705022963693262e-02
3.569650999999999840e+03,4.161712009430260650e-01,1.187160311166197690e-01
3.571579000000000178e+03,4.118041307875373036e-01,1.991693081686601863e-01
3.573507999999999811e+03,4.073982993557834220e-01,1.999429867579164410e-01
3.575435999999999694e+03,4.029582746430264706e-01,1.778285846300396988e-01
3.577364999999999782e+03,3.984794508144986480e-01,1.715160757465451491e-01
3.579292999999999665e+03,3.939664715444735066e-01,1.675639105617706681e-01
3.581222000000000207e+03,3.894146553191717430e-01,1.686471340564107413e-01
3.583150000000000091e+03,3.848287214918784116e-01,1.455686690020637775e-01
3.585079000000000178e+03,3.802039128698098125e-01,8.034976839766450052e-02
3.587007000000000062e+03,3.755450244852482911e-01,-3.740867779372919477e-02
3.588935999999999694e+03,3.708472234663986455e-01,2.313562835093596615e-02
3.590864000000000033e+03,3.661153805245689341e-01,1.269718515350768406e-01
3.592792999999999665e+03,3.613445871089666639e-01,1.123311817633538823e-01
3.594720999999999549e+03,3.565397896098616570e-01,6.584585810682053175e-02
3.596650000000000091e+03,3.516960037974783404e-01,8.396345566198115673e-02
3.598577999999999975e+03,3.468182517411122490e-01,9.857690203335189860e-02
3.600507000000000062e+03,3.419014735319620968e-01,9.378277623504627236e-02
3.602434999999999945e+03,3.369507669183278153e-01,1.328800811711409180e-01
3.604364000000000033e+03,3.319609963124108276e-01,1.700995815067876116e-01
3.606291999999999916e+03,3.269373351415012507e-01,1.231050693319376554e-01
3.608220999999999549e+03,3.218745721388245329e-01,5.351405787049512419e-02
3.610149000000000342e+03,3.167779564106396606e-01,7.185354405534361000e-02
3.612077999999999975e+03,3.116422010111818963e-01,4.979666198975007951e-02
3.614005999999999858e+03,3.064726307257288340e-01,1.572373460511922172e-02
3.615934999999999945e+03,3.012638829295113396e-01,6.381822331466385778e-02
3.617862999999999829e+03,2.960213580867900873e-01,2.794779382374112942e-02
