wavenumber (/cm),baseline value (/cm),baseline-subtracted absorbance (/cm),
3.290019000000000233e+03,3.919629077353210533e-01,3.330669073875469621e-16
3.291947000000000116e+03,3.911375911499241909e-01,4.003135783905986678e-03
3.293875000000000000e+03,3.903015006293450995e-01,5.278275698706980101e-03
3.295804000000000087e+03,3.894541941330231793e-01,3.474976416836916826e-03
3.297731999999999971e+03,3.885965501539487832e-01,-5.836065531395262518e-03
3.299660999999999603e+03,3.877276790199495338e-01,-4.647157118738087789e-03
3.301589000000000397e+03,3.868484815823798328e-01,4.317874428803603060e-03
3.303518000000000029e+03,3.859580458107050305e-01,1.898612939898725038e-02
3.305447000000000116e+03,3.850568249246695274e-01,1.883842204643937368e-02
3.307375000000000000e+03,3.841452945052878931e-01,8.505311272903992581e-03
3.309302999999999884e+03,3.832229901507240299e-01,5.063123549182590999e-03
3.311231999999999971e+03,3.822894251036981217e-01,1.386006231475467310e-02
3.313159999999999854e+03,3.813455672906389538e-01,1.583942804952864769e-02
3.315089000000000397e+03,3.803904376059357162e-01,1.849017749192072291e-02
3.317017000000000280e+03,3.794250263343847962e-01,2.119678168052663292e-02
3.318945999999999913e+03,3.784483320120042293e-01,2.277487395258082081e-02
3.320875000000000000e+03,3.774608525752665145e-01,2.483178488978465825e-02
3.322802999999999884e+03,3.764631083218983321e-01,3.296447788499812237e-02
3.324730999999999767e+03,3.754545901333514735e-01,4.305957575667651582e-02
3.326659999999999854e+03,3.744347665356215771e-01,4.908312722020313768e-02
3.328587999999999738e+03,3.734046948885794137e-01,4.814451293993859959e-02
3.330517000000000280e+03,3.723633066531721880e-01,4.828319847264328502e-02
3.332445000000000164e+03,3.713116815476347199e-01,4.764973504136804650e-02
3.334374000000000251e+03,3.702487286745519413e-01,4.698118744846746520e-02
3.336302000000000135e+03,3.691755501105191684e-01,4.301522342163355273e-02
3.338230999999999767e+03,3.680910325997590604e-01,4.005221064348407634e-02
3.340159000000000106e+03,3.669963005772292064e-01,3.540826605837188445e-02
3.342087999999999738e+03,3.658902184287935455e-01,3.429142183215694306e-02
3.344015999999999622e+03,3.647739329477683867e-01,3.707490209416997029e-02
3.345945000000000164e+03,3.636462861616553965e-01,5.275632334440227833e-02
3.347873000000000047e+03,3.625084472221349330e-01,6.393684634729657201e-02
3.349802000000000135e+03,3.613592357983481662e-01,7.131150045514655922e-02
3.351730000000000018e+03,3.601998434003306215e-01,7.777834858475785040e-02
3.353659000000000106e+03,3.590290673388665255e-01,8.712470712525266503e-02
3.355586999999999989e+03,3.578481214823518997e-01,1.020798375111242606e-01
3.357515999999999622e+03,3.566557807832140270e-01,1.162425416771772912e-01
3.359444000000000415e+03,3.554532814682023201e-01,1.136538946734564348e-01
3.361373000000000047e+03,3.542393761313888945e-01,1.042897944184711934e-01
3.363302000000000135e+03,3.530146856802183208e-01,8.444356222285709368e-02
3.365230000000000018e+03,3.517798533833946806e-01,6.944680085705257078e-02
3.367157999999999902e+03,3.505342471513888114e-01,5.432847419064279482e-02
3.369086999999999989e+03,3.492772125392260563e-01,3.789482846729763654e-02
3.371014999999999873e+03,3.480100528487248823e-01,2.344922021744466623e-02
3.372944000000000415e+03,3.467314535988830215e-01,1.083592757539453277e-02
3.374872000000000298e+03,3.454427404498865428e-01,-1.473681736000376219e-03
3.376800999999999931e+03,3.441425765623709054e-01,-1.201228765277173594e-02
3.378729000000000269e+03,3.428323099548773456e-01,-1.961357742924829672e-02
3.380657999999999902e+03,3.415105814296861553e-01,-1.519529717991929818e-02
3.382585999999999785e+03,3.401787613636972907e-01,-1.671147338606460142e-02
3.384514999999999873e+03,3.388354682008287710e-01,-2.568952225488296826e-02
3.386442999999999756e+03,3.374820946763446017e-01,-3.529337147038014155e-02
3.388372000000000298e+03,3.361172368758005291e-01,-3.857557797552102485e-02
3.390300000000000182e+03,3.347423098928175023e-01,-4.210223533550172537e-02
3.392229000000000269e+03,3.333558874545978767e-01,-3.606455474257563854e-02
3.394157000000000153e+03,3.319594070131213215e-01,-3.006238930575888535e-02
3.396085999999999785e+03,3.305514199372261430e-01,-2.666717017021780212e-02
3.398014000000000124e+03,3.291333860372525066e-01,-3.190430868403726361e-02
3.399942999999999756e+03,3.277038343236817752e-01,-3.126292099656169388e-02
3.401870999999999640e+03,3.262642469652110577e-01,-3.118353867070977614e-02
3.403800000000000182e+03,3.248131306139647734e-01,-3.090120144341490516e-02
3.405728000000000065e+03,3.233519897969969747e-01,-2.724574562178738724e-02
3.407657000000000153e+03,3.218793088080751374e-01,-3.007064152009764069e-02
3.409585000000000036e+03,3.203966145326155868e-01,-3.826092021761096085e-02
3.411514000000000124e+03,3.189023689060146438e-01,-3.092315175783211245e-02
3.413442000000000007e+03,3.173981211720580120e-01,-2.548265052900133831e-02
3.415370999999999640e+03,3.158823109077815161e-01,-2.743990643434268684e-02
3.417299000000000433e+03,3.143565097153278032e-01,-2.831345286537456651e-02
3.419228000000000065e+03,3.128191348133757543e-01,-2.837300247414009657e-02
3.421155999999999949e+03,3.112717801624285130e-01,-2.491381184928787018e-02
3.423085000000000036e+03,3.097128406227991348e-01,-1.759373531059049700e-02
3.425012999999999920e+03,3.081439325133548124e-01,-1.527310306321516542e-02
3.426942000000000007e+03,3.065634283360498813e-01,-4.613102147792758068e-03
3.428869999999999891e+03,3.049729667681102541e-01,6.920136680165445142e-03
3.430799000000000433e+03,3.033708979531279937e-01,3.668431031028540623e-03
3.432727000000000317e+03,3.017588829266930617e-01,2.982682776941469882e-03
3.434655999999999949e+03,3.001352494740370247e-01,1.213455481300851346e-02
3.436584000000000287e+03,2.985016809891032352e-01,-7.509820142664880294e-04
3.438512999999999920e+03,2.968564828987716453e-01,-5.964870596814719761e-03
3.440440999999999804e+03,2.952013609553425511e-01,3.795337324484782116e-04
3.442369999999999891e+03,2.935345982273354082e-01,1.053921351544162555e-02
3.444297999999999774e+03,2.918579228254110092e-01,1.182054874961224744e-02
3.446227000000000317e+03,2.901695954597283134e-01,1.288911842657158857e-02
3.448155000000000200e+03,2.884713665993050569e-01,1.562238922548520037e-02
3.450084000000000287e+03,2.867614745959468081e-01,2.613004450936529111e-02
3.452012000000000171e+03,2.850416922770264705e-01,3.177405795596510707e-02
3.453940999999999804e+03,2.833102356359926688e-01,3.179153510026078155e-02
3.455869000000000142e+03,2.815688998585788028e-01,3.209186435390942727e-02
3.457797999999999774e+03,2.798158785798676718e-01,3.836091545554698445e-02
3.459725999999999658e+03,2.780529893439585010e-01,3.966453162528660314e-02
3.461655000000000200e+03,2.762784034275735934e-01,4.545775687065556347e-02
3.463583000000000084e+03,2.744939607331637887e-01,5.546465995649130232e-02
3.465512000000000171e+03,2.726978101791033282e-01,6.746565673608750924e-02
3.467440000000000055e+03,2.708918140261999952e-01,7.706447674733207798e-02
3.469369000000000142e+03,2.690740988344639817e-01,8.528116677597397111e-02
3.471297000000000025e+03,2.672465492230617912e-01,8.929799877321031865e-02
3.473225999999999658e+03,2.654072693936484484e-01,9.409161224661244383e-02
3.475154000000000451e+03,2.635581663237527295e-01,1.039598206287168924e-01
3.477083000000000084e+03,2.616973218566656101e-01,1.154933584788422340e-01
3.479010999999999967e+03,2.598266653282728100e-01,1.237906692476823389e-01
3.480940000000000055e+03,2.579442562235083614e-01,1.285412982965288275e-01
3.482867999999999938e+03,2.560520462366202565e-01,1.306938997093256560e-01
3.484797000000000025e+03,2.541480724941802549e-01,1.397708464247384708e-01
3.486724999999999909e+03,2.522343090487950690e-01,1.384424849866194851e-01
3.488654000000000451e+03,2.503087706686777381e-01,1.388042768616111200e-01
3.490582000000000335e+03,2.483734537647990237e-01,1.403304604942875455e-01
3.492510999999999967e+03,2.464263507470061398e-01,1.411464358326768309e-01
3.494439000000000306e+03,2.444694803846303444e-01,1.449611813115483372e-01
3.496367999999999938e+03,2.425008127291619076e-01,1.482668480350505247e-01
3.498295999999999822e+03,2.405223889082872546e-01,1.546386548941357519e-01
3.500224999999999909e+03,2.385321566151450412e-01,1.616934724622079989e-01
3.502152999999999793e+03,2.365321793357750835e-01,1.633920517919041915e-01
3.504082000000000335e+03,2.345203824049555408e-01,1.713551068774301633e-01
3.506010000000000218e+03,2.324988516670920546e-01,1.838987252201399469e-01
3.507939000000000306e+03,2.304654900985934063e-01,1.996754232285267161e-01
3.509867000000000189e+03,2.284224059022346154e-01,2.183867273689674704e-01
3.511795999999999822e+03,2.263674796960621904e-01,2.305002742647951353e-01
3.513724000000000160e+03,2.243028420412063184e-01,2.333757227304616988e-01
3.515652999999999793e+03,2.222263511973583405e-01,2.573291008063693930e-01
3.517580999999999676e+03,2.201401600840071637e-01,2.826001940632434373e-01
3.519510000000000218e+03,2.180421046024800802e-01,3.056462458169046936e-01
3.521438000000000102e+03,2.159343600306318223e-01,3.232333007335805863e-01
3.523367000000000189e+03,2.138147399114309621e-01,3.398668071528745394e-01
3.525295000000000073e+03,2.116854418810873995e-01,3.421901405979432820e-01
3.527224000000000160e+03,2.095442571242109864e-01,3.392119404526761084e-01
3.529152000000000044e+03,2.073934056353703426e-01,3.293096698539119682e-01
3.531080999999999676e+03,2.052306562408183765e-01,3.099822048961805576e-01
3.533009000000000015e+03,2.030582512934824280e-01,2.935882538323328905e-01
3.534938000000000102e+03,2.008739372612531326e-01,2.849895296539378675e-01
3.536865999999999985e+03,1.986799788554201029e-01,2.767232830271519894e-01
3.538795000000000073e+03,1.964741001855152547e-01,2.860800470651836402e-01
3.540722999999999956e+03,1.942585883211886966e-01,3.042729121447944607e-01
3.542652000000000044e+03,1.920311450136065190e-01,3.094082771671948784e-01
3.544579999999999927e+03,1.897940796907828798e-01,2.999226025086578762e-01
3.546509000000000015e+03,1.875450717455269256e-01,2.941066523924040776e-01
3.548436999999999898e+03,1.852864529642062053e-01,2.847896886946940098e-01
3.550365999999999985e+03,1.830158803812764745e-01,2.781211186867570406e-01
3.552294000000000324e+03,1.807357081414551203e-01,2.710879638063545816e-01
3.554222999999999956e+03,1.784435709208516130e-01,2.790715269356255357e-01
3.556150999999999840e+03,1.761418452225367304e-01,3.044141659610606343e-01
3.558079999999999927e+03,1.738281433642558937e-01,3.483110924232556416e-01
3.560007999999999811e+03,1.715048642074439300e-01,3.942418273116612415e-01
3.561936999999999898e+03,1.691695977114875404e-01,4.242107377964341453e-01
3.563864999999999782e+03,1.668247650961784956e-01,4.295361855095995995e-01
3.565794000000000324e+03,1.644679339625447767e-01,4.297516373328884587e-01
3.567722000000000207e+03,1.621015478887404271e-01,4.411622918130302384e-01
3.569650999999999840e+03,1.597231521174329316e-01,4.864054592525576259e-01
3.571579000000000178e+03,1.573352125851315009e-01,5.269005749265180949e-01
3.573507999999999811e+03,1.549352521761484525e-01,5.234760246178868925e-01
3.575435999999999694e+03,1.525257591853517170e-01,4.511909230140890292e-01
3.577364999999999782e+03,1.501042341386913392e-01,3.535242840346543014e-01
3.579292999999999665e+03,1.476731876893992990e-01,2.567541189275623914e-01
3.581222000000000207e+03,1.452300980050615919e-01,1.847819243621330321e-01
3.583150000000000091e+03,1.427774980972724705e-01,1.337769287433612231e-01
3.585079000000000178e+03,1.403128437752609869e-01,1.011437265882058067e-01
3.587007000000000062e+03,1.378386904089765608e-01,7.501806634777996585e-02
3.588935999999999694e+03,1.353524714492895242e-01,5.885405231585483232e-02
3.590864000000000033e+03,1.328567646245115697e-01,4.929756901947723868e-02
3.592792999999999665e+03,1.303489810271454274e-01,5.026210937360009456e-02
3.594720999999999549e+03,1.278317207438686154e-01,5.640686266712846564e-02
3.596650000000000091e+03,1.253023725088269202e-01,5.371859673628021081e-02
3.598577999999999975e+03,1.227635587670565798e-01,5.240922781262635777e-02
3.600507000000000062e+03,1.202126458943393317e-01,4.952267563408552231e-02
3.602434999999999945e+03,1.176522786940719101e-01,3.732367657153845553e-02
3.604364000000000033e+03,1.150798011836773327e-01,3.796698353207283994e-02
3.606291999999999916e+03,1.124978805249163827e-01,4.003660223370431037e-02
3.608220999999999549e+03,1.099038383768462523e-01,3.203921847310697846e-02
3.610149000000000342e+03,1.073003642595846685e-01,1.962535801441345207e-02
3.612077999999999975e+03,1.046847574738407616e-01,9.263984371452704814e-03
3.614005999999999858e+03,1.020597298980856493e-01,-7.719386585702814330e-04
3.615934999999999945e+03,9.942255847466441310e-02,6.371290546770658203e-03
3.617862999999999829e+03,9.677597744041399608e-02,3.161021627619442498e-03
