wavenumber (/cm),baseline value (/cm),baseline-subtracted absorbance (/cm),
3.290019000000000233e+03,5.732590866728912715e-01,-1.176836406102665933e-14
3.291947000000000116e+03,5.738978163630648055e-01,-5.566968273596373251e-03
3.293875000000000000e+03,5.745064740462098030e-01,-8.382522508465495292e-03
3.295804000000000087e+03,5.750853520158472065e-01,-8.685538409137549820e-03
3.297731999999999971e+03,5.756338500874562669e-01,-8.957242445331470293e-03
3.299660999999999603e+03,5.761525372424287639e-01,-8.046293067219378869e-03
3.301589000000000397e+03,5.766408757024805709e-01,-4.827268992322331087e-03
3.303518000000000029e+03,5.770993720427810558e-01,-5.709810067012544010e-03
3.305447000000000116e+03,5.775277651729524564e-01,-8.042210652915438018e-03
3.307375000000000000e+03,5.779258564169253987e-01,-1.681308847657136951e-02
3.309302999999999884e+03,5.782938756538840153e-01,-1.447654107792906153e-02
3.311231999999999971e+03,5.786319903648475815e-01,-7.118476851334376576e-03
3.313159999999999854e+03,5.789398499902560502e-01,-1.267610348513059648e-02
3.315089000000000397e+03,5.792177738865547099e-01,-1.625132467872658637e-02
3.317017000000000280e+03,5.794654739004059252e-01,-1.100881034029432826e-02
3.318945999999999913e+03,5.796832069820467837e-01,-8.839777345513999407e-03
3.320875000000000000e+03,5.798708368535443469e-01,-1.082889836333045253e-02
3.322802999999999884e+03,5.800282896513238029e-01,-1.444487865412003025e-02
3.324730999999999767e+03,5.801556704420747224e-01,-1.766638805624087816e-02
3.326659999999999854e+03,5.802530218943715568e-01,-2.204612534264782653e-02
3.328587999999999738e+03,5.803202430735865391e-01,-2.351409209502208775e-02
3.330517000000000280e+03,5.803574037112113615e-01,-2.550465441018645585e-02
3.332445000000000164e+03,5.803644652788761960e-01,-2.334116611764636140e-02
3.334374000000000251e+03,5.803414351018432171e-01,-2.405345746903830850e-02
3.336302000000000135e+03,5.802883370579436928e-01,-2.541322056213779490e-02
3.338230999999999767e+03,5.802051160662458074e-01,-2.084630898330130933e-02
3.340159000000000106e+03,5.800918584108103460e-01,-2.007508301472493706e-02
3.342087999999999738e+03,5.799484466044333431e-01,-2.612365629688473412e-02
3.344015999999999622e+03,5.797750293374477337e-01,-1.843299765058881157e-02
3.345945000000000164e+03,5.795714267164058242e-01,-9.163225411653153074e-03
3.347873000000000047e+03,5.793378498378700669e-01,-1.168826922277244051e-02
3.349802000000000135e+03,5.790740564021632508e-01,-1.560620924466138426e-02
3.351730000000000018e+03,5.787803199120773456e-01,-1.837491450667227966e-02
3.353659000000000106e+03,5.784563356616985175e-01,-1.891579512115826311e-02
3.355586999999999989e+03,5.781024395600624644e-01,-1.989740694123698361e-02
3.357515999999999622e+03,5.777182644950258350e-01,-1.895777987247249108e-02
3.359444000000000415e+03,5.773042087818325285e-01,-1.278976330187009403e-02
3.361373000000000047e+03,5.768598429021309926e-01,-2.093812808386474877e-02
3.363302000000000135e+03,5.763853738122861614e-01,-2.281221444602365978e-02
3.365230000000000018e+03,5.758810708830139902e-01,-2.458563751861531088e-02
3.367157999999999902e+03,5.753466959467345987e-01,-2.388910042017378110e-02
3.369086999999999989e+03,5.747819484376890387e-01,-2.175771731000986087e-02
3.371014999999999873e+03,5.741874138898523938e-01,-1.789943625704748520e-02
3.372944000000000415e+03,5.735624755661419272e-01,-2.104057435458583925e-02
3.374872000000000298e+03,5.729077814067622398e-01,-3.011654189138512905e-02
3.376800999999999931e+03,5.722226522683797612e-01,-3.498872868962887850e-02
3.378729000000000269e+03,5.715077984974499259e-01,-3.452457389353602579e-02
3.380657999999999902e+03,5.707624785444025406e-01,-3.918559131234333748e-02
3.382585999999999785e+03,5.699874651619154520e-01,-3.657087615911991385e-02
3.384514999999999873e+03,5.691819543942102655e-01,-3.839351077818053959e-02
3.386442999999999756e+03,5.683467814001801344e-01,-4.448191653531563539e-02
3.388372000000000298e+03,5.674810798177958304e-01,-4.425927180288469209e-02
3.390300000000000182e+03,5.665857472122155514e-01,-4.478611999879533734e-02
3.392229000000000269e+03,5.656598548151663408e-01,-4.816964046288352286e-02
3.394157000000000153e+03,5.647043625980359138e-01,-3.718525728582733336e-02
3.396085999999999785e+03,5.637182793863217967e-01,-3.881706782993799010e-02
3.398014000000000124e+03,5.627026275576412218e-01,-3.718631814478046138e-02
3.399942999999999756e+03,5.616563535312621980e-01,-2.598347375493448297e-02
3.401870999999999640e+03,5.605805420910314751e-01,-3.038203323735033656e-02
3.403800000000000182e+03,5.594740772499804393e-01,-3.496056373646738713e-02
3.405728000000000065e+03,5.583381061981995686e-01,-3.631201113762205779e-02
3.407657000000000153e+03,5.571714505424836261e-01,-3.764116163288466765e-02
3.409585000000000036e+03,5.559753198791526074e-01,-3.251772435259203675e-02
3.411514000000000124e+03,5.547484734087717584e-01,-3.039898599031909399e-02
3.413442000000000007e+03,5.534921831338905918e-01,-3.484912628393743717e-02
3.415370999999999640e+03,5.522051458488377307e-01,-2.991344035023590919e-02
3.417299000000000433e+03,5.508886959624135216e-01,-2.284489353930108102e-02
3.419228000000000065e+03,5.495414678626886484e-01,-2.935507457284747268e-02
3.421155999999999949e+03,5.481648583647213968e-01,-3.355348837404137363e-02
3.423085000000000036e+03,5.467574394503316171e-01,-2.444709462274552436e-02
3.425012999999999920e+03,5.453206703408000067e-01,-1.420883436689535095e-02
3.426942000000000007e+03,5.438530606117524258e-01,-1.433768316534100862e-02
3.428869999999999891e+03,5.423561318906706674e-01,-1.380813561853688753e-02
3.430799000000000433e+03,5.408283313469510745e-01,-8.844174776587943043e-03
3.432727000000000317e+03,5.392712430143262736e-01,-2.824831085155965482e-03
3.434655999999999949e+03,5.376832516559417741e-01,-5.562096017545092863e-03
3.436584000000000287e+03,5.360660037117668253e-01,-5.512415640937629036e-03
3.438512999999999920e+03,5.344178215387103137e-01,6.353005488941576573e-04
3.440440999999999804e+03,5.327404139829852170e-01,3.863334541065466254e-04
3.442369999999999891e+03,5.310320409952566933e-01,-1.277015842302953175e-02
3.444297999999999774e+03,5.292944738279885541e-01,-8.005564228734440846e-03
3.446227000000000317e+03,5.275259100255951239e-01,-2.004035550555816059e-02
3.448155000000000200e+03,5.257281832467768368e-01,-2.072165948163284810e-02
3.450084000000000287e+03,5.238994286297184999e-01,2.167672954624277892e-03
3.452012000000000171e+03,5.220415422393429594e-01,1.445705981098299731e-02
3.453940999999999804e+03,5.201525968076126105e-01,1.956222145892949627e-02
3.455869000000000142e+03,5.182345508057011330e-01,2.315873903586429527e-02
3.457797999999999774e+03,5.162854145593058774e-01,2.213490230928649716e-02
3.459725999999999658e+03,5.143072089458300411e-01,2.811869972145752961e-02
3.461655000000000200e+03,5.122978818847698790e-01,2.688291960637623212e-02
3.463583000000000084e+03,5.102595166597510001e-01,2.628847961238278685e-02
3.465512000000000171e+03,5.081899987840188260e-01,2.578111025605545059e-02
3.467440000000000055e+03,5.060914739474569046e-01,2.068578607118221058e-02
3.469369000000000142e+03,5.039617652570598239e-01,3.572975384825216594e-02
3.471297000000000025e+03,5.018030808089406491e-01,5.567222208015509821e-02
3.473225999999999658e+03,4.996131813038786618e-01,5.317246641280326536e-02
3.475154000000000451e+03,4.973943372442022337e-01,4.701106816120281806e-02
3.477083000000000084e+03,4.951442469244753397e-01,5.471129827589704675e-02
3.479010999999999967e+03,4.928652432532629746e-01,5.439011555381956242e-02
3.480940000000000055e+03,4.905549621188640685e-01,4.245342557917841653e-02
3.482867999999999938e+03,4.882157988360944501e-01,4.355027758515395142e-02
3.484797000000000025e+03,4.858453268870306374e-01,5.716492474391032808e-02
3.486724999999999909e+03,4.834460039927108710e-01,5.400972760095124059e-02
3.488654000000000451e+03,4.810153412289750463e-01,5.128847983346629391e-02
3.490582000000000335e+03,4.785558587231193428e-01,6.534908069906109063e-02
3.492510999999999967e+03,4.760650051447186115e-01,6.877935645826327438e-02
3.494439000000000306e+03,4.735453630272985492e-01,5.764382616189034358e-02
3.496367999999999938e+03,4.709943186342329113e-01,5.176802992121887215e-02
3.498295999999999822e+03,4.684145169052698066e-01,6.373180182725546317e-02
3.500224999999999909e+03,4.658032816975321566e-01,6.194601932763066365e-02
3.502152999999999793e+03,4.631633203570189039e-01,3.264842242024101893e-02
3.504082000000000335e+03,4.604918943346163474e-01,3.086691274832831233e-02
3.506010000000000218e+03,4.577917733825529467e-01,7.005911198557357444e-02
3.507939000000000306e+03,4.550601565454854835e-01,7.512437281145722956e-02
3.509867000000000189e+03,4.522998759818648296e-01,6.141680621757550362e-02
3.511795999999999822e+03,4.495080683301324598e-01,7.875940604078990326e-02
3.513724000000000160e+03,4.466876281549687633e-01,1.069144221712190479e-01
3.515652999999999793e+03,4.438356296885714869e-01,1.241112482238233561e-01
3.517580999999999676e+03,4.409550299018576425e-01,1.216237212631001707e-01
3.519510000000000218e+03,4.380428406207812486e-01,1.167036645050338883e-01
3.521438000000000102e+03,4.351020812225243617e-01,1.071868283767298813e-01
3.523367000000000189e+03,4.321297011267830612e-01,8.917225600275990871e-02
3.525295000000000073e+03,4.291287821169760264e-01,9.723468479821484323e-02
3.527224000000000160e+03,4.260962112065698193e-01,8.397927807581573312e-02
3.529152000000000044e+03,4.230351325852055311e-01,8.746812929736647035e-02
3.531080999999999676e+03,4.199423708601344174e-01,1.161405741538446001e-01
3.533009000000000015e+03,4.168211326272270867e-01,1.370735551640120953e-01
3.534938000000000102e+03,4.136681800874768555e-01,1.328304219628491101e-01
3.536865999999999985e+03,4.104867822430264823e-01,1.264610276358175689e-01
3.538795000000000073e+03,4.072736388886184500e-01,1.375809743453046963e-01
3.540722999999999956e+03,4.040320814326037180e-01,1.390536594807232351e-01
3.542652000000000044e+03,4.007587472635307790e-01,1.097137597262172193e-01
3.544579999999999927e+03,3.974570301959730045e-01,6.854296980402674322e-02
3.546509000000000015e+03,3.941235052122280536e-01,6.129774362281348310e-02
3.548436999999999898e+03,3.907616285331201311e-01,9.321507230564929358e-02
3.550365999999999985e+03,3.873679127347102735e-01,1.131073901543855342e-01
3.552294000000000324e+03,3.839458764440522032e-01,9.874843856060744329e-02
3.554222999999999956e+03,3.804919698309774390e-01,1.224744793768508533e-01
3.556150999999999840e+03,3.770097739287763261e-01,1.517590983918197800e-01
3.558079999999999927e+03,3.734956765010295499e-01,1.605313505259970963e-01
3.560007999999999811e+03,3.699533209872711836e-01,1.597065112587674474e-01
3.561936999999999898e+03,3.663790327448595008e-01,1.544373698646464010e-01
3.563864999999999782e+03,3.627765176195509866e-01,1.264182633683330614e-01
3.565794000000000324e+03,3.591420385624672917e-01,4.914314317099033325e-02
3.567722000000000207e+03,3.554793638256228405e-01,4.625782163570035799e-02
3.569650999999999840e+03,3.517846939538742390e-01,1.833327338187258349e-01
3.571579000000000178e+03,3.480618596054654290e-01,2.561748598726329984e-01
3.573507999999999811e+03,3.443069989190519209e-01,2.594581455357474198e-01
3.575435999999999694e+03,3.405240049591000684e-01,2.293604312011978674e-01
3.577364999999999782e+03,3.367089534580145482e-01,2.025361537181267213e-01
3.579292999999999665e+03,3.328657998865196532e-01,1.805079186596123542e-01
3.581222000000000207e+03,3.289905575707692265e-01,1.631688086920450864e-01
3.583150000000000091e+03,3.250872443877099727e-01,1.324449084547871802e-01
3.585079000000000178e+03,3.211518112572946393e-01,8.326477774550111732e-02
3.587007000000000062e+03,3.171883384626923430e-01,-3.742858499971246644e-03
3.588935999999999694e+03,3.131927145176049976e-01,2.718845976012085330e-02
3.590864000000000033e+03,3.091690821114596588e-01,1.049352981308513399e-01
3.592792999999999665e+03,3.051132673517074068e-01,1.036248500760648117e-01
3.594720999999999549e+03,3.010294753340048146e-01,6.905719754577099856e-02
3.596650000000000091e+03,2.969134697595876560e-01,7.594300740723403109e-02
3.598577999999999975e+03,2.927695181303349159e-01,8.031156295074581841e-02
3.600507000000000062e+03,2.885933217412457452e-01,7.684190659053391492e-02
3.602434999999999945e+03,2.843892105004570681e-01,1.110124670391510193e-01
3.604364000000000033e+03,2.801528232966958853e-01,1.354100844386254554e-01
3.606291999999999916e+03,2.758885524443499548e-01,9.488497970849252283e-02
3.608220999999999549e+03,2.715919744259309709e-01,4.249376648739588980e-02
3.610149000000000342e+03,2.672675439620277871e-01,5.960757253377768627e-02
3.612077999999999975e+03,2.629107751289367911e-01,4.639397789995403087e-02
3.614005999999999858e+03,2.585261850534976702e-01,1.861454188033229151e-02
3.615934999999999945e+03,2.541092254057417676e-01,4.574631979463084086e-02
3.617862999999999829e+03,2.496644757187382879e-01,1.444736025516646372e-02
