wavenumber (/cm),baseline value (/cm),baseline-subtracted absorbance (/cm),
3.290019000000000233e+03,1.424602516309407818e-01,2.166961789375143610e-03
3.291947000000000116e+03,1.419979436358942415e-01,2.452996073483149075e-04
3.293875000000000000e+03,1.415330645046193325e-01,2.367215085314899881e-03
3.295804000000000087e+03,1.410653711165235080e-01,3.385700644892075672e-03
3.297731999999999971e+03,1.405953483792150571e-01,-2.984910354984382508e-03
3.299660999999999603e+03,1.401225087172401906e-01,-7.890449071388250246e-03
3.301589000000000397e+03,1.396473423738981978e-01,-3.110529699154707117e-03
3.303518000000000029e+03,1.391693564380438453e-01,-6.389300520057261679e-03
3.305447000000000116e+03,1.386887966981165121e-01,-6.395227266617009576e-03
3.307375000000000000e+03,1.382059142789353601e-01,-5.524646804564437019e-03
3.309302999999999884e+03,1.377204607235262834e-01,-8.344878244495923525e-03
3.311231999999999971e+03,1.372321822399134028e-01,-6.834232566102382833e-03
3.313159999999999854e+03,1.367415850784712283e-01,-2.023970912581773973e-03
3.315089000000000397e+03,1.362481603209797498e-01,-2.022624440271236779e-03
3.317017000000000280e+03,1.357524195535031453e-01,-9.923901380157751362e-03
3.318945999999999913e+03,1.352538485221335129e-01,-1.537314022763291987e-02
3.320875000000000000e+03,1.347527036866891237e-01,-9.652983276624116371e-03
3.322802999999999884e+03,1.342492468433746922e-01,-1.144868766350581879e-02
3.324730999999999767e+03,1.337432188638310038e-01,-1.173855903158615988e-02
3.326659999999999854e+03,1.332343552847023993e-01,-5.547496011636621205e-03
3.328587999999999738e+03,1.327231836991247249e-01,-6.800536914409516243e-03
3.330517000000000280e+03,1.322091738461175225e-01,-1.424924840343377852e-02
3.332445000000000164e+03,1.316928586545067503e-01,-2.037878596112419061e-02
3.334374000000000251e+03,1.311737025276209501e-01,-2.367230457794722298e-02
3.336302000000000135e+03,1.306522437299761918e-01,-1.575848790518641351e-02
3.338230999999999767e+03,1.301279413292109055e-01,-1.169364496388025643e-02
3.340159000000000106e+03,1.296013389255334936e-01,-1.078214041668079659e-02
3.342087999999999738e+03,1.290718902508887211e-01,-1.549500301882966724e-02
3.344015999999999622e+03,1.285401442411773232e-01,-2.263986465124334657e-02
3.345945000000000164e+03,1.280055492926539529e-01,-1.930564248929966809e-02
3.347873000000000047e+03,1.274686596769085689e-01,-1.067089639638751919e-02
3.349802000000000135e+03,1.269289184545066007e-01,-7.815218547703395302e-03
3.351730000000000018e+03,1.263868852327276748e-01,2.049134625186077585e-04
3.353659000000000106e+03,1.258419977364457765e-01,-5.416089069158580571e-03
3.355586999999999989e+03,1.252948209086333087e-01,-6.473758466881474050e-03
3.357515999999999622e+03,1.247447871384737006e-01,-3.850480890803531508e-04
3.359444000000000415e+03,1.241924667046268027e-01,-4.223221597451143339e-03
3.361373000000000047e+03,1.236372866605881526e-01,-1.329245907438192376e-02
3.363302000000000135e+03,1.230795328124743016e-01,-8.651760212288195362e-03
3.365230000000000018e+03,1.225194963027895767e-01,-8.964044299062834398e-03
3.367157999999999902e+03,1.219568886568760391e-01,-1.350302099611289108e-02
3.369086999999999989e+03,1.213914160650788610e-01,-2.163838717411925572e-02
3.371014999999999873e+03,1.208236648131322255e-01,-2.271182883922717721e-02
3.372944000000000415e+03,1.202530459474555613e-01,-1.855127521120314427e-02
3.374872000000000298e+03,1.196801510894753839e-01,-2.113122285089286123e-02
3.376800999999999931e+03,1.191043859499192337e-01,-1.870270841031107523e-02
3.378729000000000269e+03,1.185263474859059585e-01,-1.719177153064066488e-02
3.380657999999999902e+03,1.179454360724712103e-01,-1.831076692056132771e-02
3.382585999999999785e+03,1.173622540024235050e-01,-1.327651308909638672e-02
3.384514999999999873e+03,1.167761963151101590e-01,-1.502037152480273363e-02
3.386442999999999756e+03,1.161878706390289118e-01,-1.364080633334463499e-02
3.388372000000000298e+03,1.155966666778360796e-01,-1.403096304316786558e-02
3.390300000000000182e+03,1.150031973957217346e-01,-1.788110979087642605e-02
3.392229000000000269e+03,1.144068471606494164e-01,-1.786537465366011546e-02
3.394157000000000153e+03,1.138082342725010854e-01,-1.486881209169954587e-02
3.396085999999999785e+03,1.132067377635506134e-01,-1.387216180828598766e-02
3.398014000000000124e+03,1.126029812693687404e-01,-2.030102413982559639e-02
3.399942999999999756e+03,1.119963384865387823e-01,-2.486679515009937447e-02
3.401870999999999640e+03,1.113874383863238116e-01,-2.281334705361226511e-02
3.403800000000000182e+03,1.107756493296143674e-01,-1.912327281516956745e-02
3.405728000000000065e+03,1.101616056233658547e-01,-1.700783115924719979e-02
3.407657000000000153e+03,1.095446702927773686e-01,-2.252696293024269991e-02
3.409585000000000036e+03,1.089254829804948699e-01,-2.713890329736434737e-02
3.411514000000000124e+03,1.083034013760282299e-01,-2.101169587742690581e-02
3.413442000000000007e+03,1.076790704577121893e-01,-6.202835602167500184e-03
3.415370999999999640e+03,1.070518425793656192e-01,-8.218664573774514537e-03
3.417299000000000433e+03,1.064223680550160367e-01,-1.985200458810165713e-02
3.419228000000000065e+03,1.057899939027908687e-01,-1.894563229980850139e-02
3.421155999999999949e+03,1.051553757724077443e-01,-1.508081845647168961e-02
3.423085000000000036e+03,1.045178553463035342e-01,-1.704255245720798229e-02
3.425012999999999920e+03,1.038780936098868679e-01,-1.626392771985996077e-02
3.426942000000000007e+03,1.032354269099040600e-01,-9.865436229569368720e-03
3.428869999999999891e+03,1.025905215674534077e-01,4.765800168886613619e-04
3.430799000000000433e+03,1.019427085935902255e-01,3.831755525700586418e-03
3.432727000000000317e+03,1.012926596451069194e-01,-9.235809691705565427e-03
3.434655999999999949e+03,1.006397003973655835e-01,-1.742907597984499901e-02
3.436584000000000287e+03,9.998450784284784731e-02,-1.466857121656683915e-02
3.438512999999999920e+03,9.932640232122791346e-02,-7.856691230827550498e-03
3.440440999999999804e+03,9.866606616067663538e-02,1.512684152782384217e-04
3.442369999999999891e+03,9.800281436517677136e-02,4.352264851971376913e-03
3.444297999999999774e+03,9.733733459859195136e-02,4.919888141388994995e-03
3.446227000000000317e+03,9.666893652921348945e-02,-6.763922608072903131e-04
3.448155000000000200e+03,9.599831315659512754e-02,5.946876325513272832e-05
3.450084000000000287e+03,9.532476881333806773e-02,-1.255803296097202093e-03
3.452012000000000171e+03,9.464900183468616390e-02,-3.800912365907738177e-03
3.453940999999999804e+03,9.397031121754961802e-02,-8.139929111306010157e-03
3.455869000000000142e+03,9.328940063286417228e-02,-7.730912200036854642e-04
3.457797999999999774e+03,9.260556374184858441e-02,-1.591584245111299367e-03
3.459725999999999658e+03,9.191950955112959676e-02,-3.373377211894901251e-03
3.461655000000000200e+03,9.123052638623496691e-02,-1.333042695648156695e-03
3.463583000000000084e+03,9.053932858948199325e-02,1.964865259538761677e-03
3.465512000000000171e+03,8.984519915070876550e-02,5.603076711359289419e-03
3.467440000000000055e+03,8.914885774792269402e-02,6.652633398395835229e-03
3.469369000000000142e+03,8.844958203526953611e-02,3.939979940498883337e-03
3.471297000000000025e+03,8.774809702644947862e-02,2.127019469356117298e-03
3.473225999999999658e+03,8.704367503991861099e-02,6.862196348710547511e-03
3.475154000000000451e+03,8.633704642506412341e-02,2.300312132889636985e-02
3.477083000000000084e+03,8.562747816465421380e-02,2.330448828455322641e-02
3.479010999999999967e+03,8.491570594376707248e-02,1.163695016061261356e-02
3.480940000000000055e+03,8.420099140947678862e-02,5.149427975424725190e-03
3.482867999999999938e+03,8.348407558255610539e-02,4.578366169539549446e-03
3.484797000000000025e+03,8.276421477438766772e-02,4.698972550868152354e-03
3.486724999999999909e+03,8.204215534143344257e-02,5.536595823524059767e-03
3.488654000000000451e+03,8.131714825938551883e-02,5.298881563540636108e-03
3.490582000000000335e+03,8.058994522039775177e-02,5.964574816880396924e-03
3.492510999999999967e+03,7.985979186447078604e-02,6.711503568892940308e-03
3.494439000000000306e+03,7.912744521944992115e-02,2.181035675237197324e-03
3.496367999999999938e+03,7.839214558964391344e-02,4.002076218370564931e-03
3.498295999999999822e+03,7.765465533858861846e-02,1.329967830539979801e-02
3.500224999999999909e+03,7.691420943490401285e-02,1.256761721933630227e-02
3.502152999999999793e+03,7.617157557781562005e-02,8.034389007459008525e-03
3.504082000000000335e+03,7.542598340025152837e-02,3.409990504687154811e-03
3.506010000000000218e+03,7.467820593712914956e-02,4.477432459888408545e-03
3.507939000000000306e+03,7.392746748568601589e-02,1.770347380042691654e-02
3.509867000000000189e+03,7.317454641653098335e-02,2.379656262354323815e-02
3.511795999999999822e+03,7.241866169120880770e-02,1.103706990245312269e-02
3.513724000000000160e+03,7.166059701601890097e-02,1.680911407438134830e-02
3.515652999999999793e+03,7.089956601681857151e-02,2.163445075857683975e-02
3.517580999999999676e+03,7.013635773559556696e-02,2.254211383942772429e-02
3.519510000000000218e+03,6.937018046251530734e-02,2.848350080495887227e-02
3.521438000000000102e+03,6.860182857525876088e-02,3.298997011998761053e-02
3.523367000000000189e+03,6.783050502829945927e-02,3.881627968745027246e-02
3.525295000000000073e+03,6.705700953500892680e-02,3.373795784616451243e-02
3.527224000000000160e+03,6.628053971417102730e-02,2.683968395777602822e-02
3.529152000000000044e+03,6.550190061484739701e-02,3.086249826679265951e-02
3.531080999999999676e+03,6.472028452013001143e-02,2.634402116486445067e-02
3.533009000000000015e+03,6.393650181477328331e-02,2.546610769128410112e-02
3.534938000000000102e+03,6.314973944617641166e-02,3.362845253891144637e-02
3.536865999999999985e+03,6.236081313478569754e-02,3.962241146912814926e-02
3.538795000000000073e+03,6.156890449231067208e-02,3.211888674720464465e-02
3.540722999999999956e+03,6.077483457488641605e-02,2.664921015950261207e-02
3.542652000000000044e+03,5.997777965853234861e-02,1.701849247567066570e-02
3.544579999999999927e+03,5.917856613507410657e-02,2.168070693109491742e-02
3.546509000000000015e+03,5.837636494484010896e-02,1.825271240837489373e-02
3.548436999999999898e+03,5.757200781534876910e-02,1.529472098241368982e-02
3.550365999999999985e+03,5.676466035123661769e-02,1.675817282676828057e-02
3.552294000000000324e+03,5.595515961571084773e-02,2.264968660982447091e-02
3.554222999999999956e+03,5.514266587772009842e-02,2.310616916421759370e-02
3.556150999999999840e+03,5.432802153616123064e-02,2.414821331938377114e-02
3.558079999999999927e+03,5.351038152429010708e-02,2.832652434709803657e-02
3.560007999999999811e+03,5.269059357669814148e-02,3.324416877185676356e-02
3.561936999999999898e+03,5.186780729094886411e-02,3.956742104083055267e-02
3.563864999999999782e+03,5.104287573732291250e-02,4.858060981719658500e-02
3.565794000000000324e+03,5.021494317769414906e-02,5.593510342062835150e-02
3.567722000000000207e+03,4.938486801803465553e-02,6.054896236407092402e-02
3.569650999999999840e+03,4.855178918452685011e-02,6.166629096458775550e-02
3.571579000000000178e+03,4.771657041883381467e-02,7.033282380297345426e-02
3.573507999999999811e+03,4.687834531144741135e-02,7.265846736329573119e-02
3.575435999999999694e+03,4.603798293972038991e-02,5.980731062971100798e-02
3.577364999999999782e+03,4.519461155845494460e-02,5.058264846018412086e-02
3.579292999999999665e+03,4.434910558069482533e-02,4.711035387876405522e-02
3.581222000000000207e+03,4.350058792554989395e-02,2.341367116112280655e-02
3.583150000000000091e+03,4.264993834175623277e-02,6.909241527767839841e-03
3.585079000000000178e+03,4.179627441273181532e-02,6.848646370119393367e-03
3.587007000000000062e+03,4.094048122290416813e-02,-1.357070225700418575e-03
3.588935999999999694e+03,4.008167102000248505e-02,-2.630599258586663325e-03
3.590864000000000033e+03,3.922073422414085186e-02,1.804428869986995920e-03
3.592792999999999665e+03,3.835677774735968271e-02,-1.875883059568650424e-03
3.594720999999999549e+03,3.749069734546495170e-02,5.434745338598112596e-03
3.596650000000000091e+03,3.662159459480340828e-02,1.005314911442223291e-02
3.598577999999999975e+03,3.575037058687557945e-02,1.568951757715009165e-02
3.600507000000000062e+03,3.487612156233543814e-02,1.609032764549267469e-02
3.602434999999999945e+03,3.399975394837362330e-02,9.066415669519933829e-03
3.604364000000000033e+03,3.312035864995488410e-02,2.174142747993546010e-03
3.606291999999999916e+03,3.223884742995952735e-02,5.901879503870777199e-03
3.608220999999999549e+03,3.135430585766130207e-02,2.594435987631538154e-03
3.610149000000000342e+03,3.046765103163240340e-02,-7.896355598268289810e-03
3.612077999999999975e+03,2.957796318545513614e-02,-3.131551256285280971e-03
3.614005999999999858e+03,2.868616475339269556e-02,5.058203351433476769e-04
3.615934999999999945e+03,2.779133063333683040e-02,-9.494965302489610792e-03
3.617862999999999829e+03,2.689438859524084791e-02,-6.809579648363595084e-03
