wavenumber (/cm),baseline value (/cm),baseline-subtracted absorbance (/cm),
3.290019000000000233e+03,3.206589002795823262e-01,7.105427357601001859e-15
3.291947000000000116e+03,3.178041509032176748e-01,5.275066244964321527e-03
3.293875000000000000e+03,3.149638633485665196e-01,-5.944292053133182208e-03
3.295804000000000087e+03,3.121365756908147659e-01,-3.014488085969269093e-03
3.297731999999999971e+03,3.093252192805593381e-01,8.047567299123592477e-03
3.299660999999999603e+03,3.065268777729741601e-01,-4.552040867102924437e-03
3.301589000000000397e+03,3.037444525071109069e-01,-6.741656607763601983e-03
3.303518000000000029e+03,3.009750571496994098e-01,1.693361013827754391e-02
3.305447000000000116e+03,2.982201386197971260e-01,1.065777377535681580e-02
3.307375000000000000e+03,2.954811138209905153e-01,6.519818145457989544e-03
3.309302999999999884e+03,2.927565508439116115e-01,1.700579771153964970e-02
3.311231999999999971e+03,2.900450477868474763e-01,2.024945361110130904e-02
3.313159999999999854e+03,2.873494159541536419e-01,1.917714508964873943e-02
3.315089000000000397e+03,2.846668590472631877e-01,1.617563862282000997e-02
3.317017000000000280e+03,2.820001583589579752e-01,6.218853756605469130e-03
3.318945999999999913e+03,2.793465476022376492e-01,5.296509247714631385e-03
3.320875000000000000e+03,2.767074136730265366e-01,1.277161708186547173e-02
3.322802999999999884e+03,2.740841134517815192e-01,1.622529940935457660e-02
3.324730999999999767e+03,2.714752750522713143e-01,2.282947797661893929e-02
3.326659999999999854e+03,2.688795565958912448e-01,1.535157108351192790e-02
3.328587999999999738e+03,2.662996493407661092e-01,8.871832485887409803e-03
3.330517000000000280e+03,2.637328770345597206e-01,9.424625295356037213e-03
3.332445000000000164e+03,2.611819009238267597e-01,2.217970205846508946e-02
3.334374000000000251e+03,2.586440747677940521e-01,3.468024955652992958e-02
3.336302000000000135e+03,2.561220298014532659e-01,3.483509974188248037e-02
3.338230999999999767e+03,2.536131497955906866e-01,4.009141684000994132e-02
3.340159000000000106e+03,2.511200359736420751e-01,5.235433494900476603e-02
3.342087999999999738e+03,2.486401021179531767e-01,4.478394261643625640e-02
3.344015999999999622e+03,2.461759194403967399e-01,2.784458382148535804e-02
3.345945000000000164e+03,2.437249317348779698e-01,2.366742614023831237e-02
3.347873000000000047e+03,2.412896802017101550e-01,2.900202529689188680e-02
3.349802000000000135e+03,2.388676386463650658e-01,2.573907151206977773e-02
3.351730000000000018e+03,2.364613182575894257e-01,3.196831827549484473e-02
3.353659000000000106e+03,2.340682228524144648e-01,4.244435869464968647e-02
3.355586999999999989e+03,2.316908336080309994e-01,4.116657552523950159e-02
3.357515999999999622e+03,2.293266843530297194e-01,4.607033335433285970e-02
3.359444000000000415e+03,2.269782262530384287e-01,5.458281754938365538e-02
3.361373000000000047e+03,2.246430231482072770e-01,5.377915765328378228e-02
3.363302000000000135e+03,2.223222968708817859e-01,5.495356519808325402e-02
3.365230000000000018e+03,2.200172392379506903e-01,4.865843643772471694e-02
3.367157999999999902e+03,2.177266434267437489e-01,3.886235936915483080e-02
3.369086999999999989e+03,2.154493326222564065e-01,3.807070465640105539e-02
3.371014999999999873e+03,2.131876679554380871e-01,4.385333856832573929e-02
3.372944000000000415e+03,2.109393033011208729e-01,4.413339008191741186e-02
3.374872000000000298e+03,2.087065697786982810e-01,4.883863059408799501e-02
3.376800999999999931e+03,2.064871512745583004e-01,5.372160921006319256e-02
3.378729000000000269e+03,2.042833488965243305e-01,5.527862687234819106e-02
3.380657999999999902e+03,2.020928765425544782e-01,4.720814862053934746e-02
3.382585999999999785e+03,1.999180053089126829e-01,3.747248863330465696e-02
3.384514999999999873e+03,1.977564791051129589e-01,3.700586945033812469e-02
3.386442999999999756e+03,1.956105390158633384e-01,3.986662780613059454e-02
3.388372000000000298e+03,1.934779589622337426e-01,4.205792174605971212e-02
3.390300000000000182e+03,1.913609500173762967e-01,4.160829508979979607e-02
3.392229000000000269e+03,1.892573161139203819e-01,4.271658882550166680e-02
3.394157000000000153e+03,1.871692383134515580e-01,4.103113447312800588e-02
3.396085999999999785e+03,1.850945505601728769e-01,2.777777003628578711e-02
3.398014000000000124e+03,1.830354039040962277e-01,2.206058864017190757e-02
3.399942999999999756e+03,1.809896623009841221e-01,1.706532371951841043e-02
3.401870999999999640e+03,1.789594467893032004e-01,2.394549263287704122e-02
3.403800000000000182e+03,1.769426513363612230e-01,3.678055462822360511e-02
3.405728000000000065e+03,1.749413669690689233e-01,4.347056220148015626e-02
3.407657000000000153e+03,1.729535176663006268e-01,4.043977217526517620e-02
3.409585000000000036e+03,1.709811644434005018e-01,4.325089520245217756e-02
3.411514000000000124e+03,1.690222612908023336e-01,6.174195119754699590e-02
3.413442000000000007e+03,1.670788392122943833e-01,6.322032201790062089e-02
3.415370999999999640e+03,1.651488822098734488e-01,3.506919793924101469e-02
3.417299000000000433e+03,1.632343912757576732e-01,3.127819027130573915e-02
3.419228000000000065e+03,1.613333804235033142e-01,3.629942479550773982e-02
3.421155999999999949e+03,1.594478206337797133e-01,4.695199297292962370e-02
3.423085000000000036e+03,1.575757559316954826e-01,4.514279020064293491e-02
3.425012999999999920e+03,1.557191272863640563e-01,2.338525295594706677e-02
3.426942000000000007e+03,1.538760087344535066e-01,1.930386079024337675e-02
3.428869999999999891e+03,1.520483112335107023e-01,1.502065428373011713e-02
3.430799000000000433e+03,1.502341388317773863e-01,1.211348465377604100e-02
3.432727000000000317e+03,1.484353724752267567e-01,1.827571792551907492e-02
3.434655999999999949e+03,1.466501462236600162e-01,1.797240736441008124e-02
3.436584000000000287e+03,1.448803110115015613e-01,1.077206550294285137e-02
3.438512999999999920e+03,1.431240309101085018e-01,4.686779900702653379e-03
3.440440999999999804e+03,1.413831268423422216e-01,3.969290756442589441e-04
3.442369999999999891e+03,1.396557928911192903e-01,2.441131619597136648e-03
3.444297999999999774e+03,1.379438199677451848e-01,7.114893918554798802e-03
3.446227000000000317e+03,1.362454321666959345e-01,-1.104412741366722628e-02
3.448155000000000200e+03,1.345623903877104510e-01,-6.181216109983900253e-03
3.450084000000000287e+03,1.328929487368348816e-01,1.313407829019208606e-02
3.452012000000000171e+03,1.312388381022451256e-01,1.777327746159329536e-02
3.453940999999999804e+03,1.295983426015361317e-01,5.741825152424162582e-03
3.455869000000000142e+03,1.279731631113385504e-01,8.766818249331898016e-03
3.457797999999999774e+03,1.263616137608032375e-01,2.482477952903749951e-02
3.459725999999999658e+03,1.247653654149942781e-01,3.431571566608671020e-02
3.461655000000000200e+03,1.231827622146326462e-01,2.299897124296279571e-02
3.463583000000000084e+03,1.216154450132158615e-01,2.136125582555337132e-02
3.465512000000000171e+03,1.200617879630243579e-01,1.248341240976191813e-02
3.467440000000000055e+03,1.185234019059997479e-01,-7.060673300447461997e-04
3.469369000000000142e+03,1.169986910059819252e-01,5.567944595136431474e-03
3.471297000000000025e+03,1.154892360933494899e-01,1.953406306788085800e-02
3.473225999999999658e+03,1.139934713435017954e-01,2.232619314857586801e-02
3.475154000000000451e+03,1.125129475752579822e-01,2.578155382269109452e-02
3.477083000000000084e+03,1.110461289755839687e-01,2.963979833103280725e-02
3.479010999999999967e+03,1.095945363517323301e-01,1.778850185889169211e-02
3.480940000000000055e+03,1.081566639022319976e-01,1.528695212759068056e-02
3.482867999999999938e+03,1.067340024227725337e-01,2.934428275896028282e-02
3.484797000000000025e+03,1.053250761234423294e-01,2.903559489240059577e-02
3.486724999999999909e+03,1.039313457883750402e-01,2.285057406251045364e-02
3.488654000000000451e+03,1.025513656392149642e-01,3.257072196563104427e-02
3.490582000000000335e+03,1.011865664485398497e-01,5.432135526627757116e-02
3.492510999999999967e+03,9.983553244955345463e-02,4.288021778343775736e-02
3.494439000000000306e+03,9.849966440327051487e-02,2.353947818759571931e-02
3.496367999999999938e+03,9.717757655445424803e-02,2.921944115290742161e-02
3.498295999999999822e+03,9.587063965255993025e-02,2.739683471836240614e-02
3.500224999999999909e+03,9.457749795391734438e-02,2.370395591374307998e-02
3.502152999999999793e+03,9.329949219641520131e-02,4.840414247273727710e-02
3.504082000000000335e+03,9.203529664794629639e-02,5.677365022996561095e-02
3.506010000000000218e+03,9.078622203483632802e-02,5.316158784400748516e-02
3.507939000000000306e+03,8.955097263653755135e-02,2.968481487511098749e-02
3.509867000000000189e+03,8.833082916781975769e-02,2.780616990021300694e-02
3.511795999999999822e+03,8.712452591969110927e-02,4.290902487247993946e-02
3.513724000000000160e+03,8.593331359536549030e-02,4.788961277928471816e-02
3.515652999999999793e+03,8.475595649741052284e-02,7.174171358646574959e-02
3.517580999999999676e+03,8.359367531747707858e-02,9.429169280926963381e-02
3.519510000000000218e+03,8.244526436969223937e-02,8.770105436283337497e-02
3.521438000000000102e+03,8.131191433414741709e-02,8.183999619707282847e-02
3.523367000000000189e+03,8.019244953653981156e-02,7.855219165637716827e-02
3.525295000000000073e+03,7.908803064538716399e-02,8.041523123718441468e-02
3.527224000000000160e+03,7.799751199794613399e-02,6.298291670661981811e-02
3.529152000000000044e+03,7.692202425118921383e-02,6.212177817192365836e-02
3.531080999999999676e+03,7.586045175391831208e-02,6.995408692268867412e-02
3.533009000000000015e+03,7.481389515155001391e-02,7.492329030977362692e-02
3.534938000000000102e+03,7.378126880445279312e-02,8.350298096255581726e-02
3.536865999999999985e+03,7.276364334647666965e-02,8.254763344755833288e-02
3.538795000000000073e+03,7.175996314955668254e-02,8.516175166870887381e-02
3.540722999999999956e+03,7.077126883597273377e-02,9.028092128518228066e-02
3.542652000000000044e+03,6.979653478921932219e-02,8.640849782960646763e-02
3.544579999999999927e+03,6.883677162002399541e-02,6.648755270430051212e-02
3.546509000000000015e+03,6.789098372344426480e-02,5.480799111346090768e-02
3.548436999999999898e+03,6.696015169864111272e-02,7.123183338989491631e-02
3.550365999999999985e+03,6.604330995223151035e-02,8.570692303938098888e-02
3.552294000000000324e+03,6.514140907182408569e-02,8.851003547617253275e-02
3.554222999999999956e+03,6.425351347558461157e-02,9.464769808079953606e-02
3.556150999999999840e+03,6.338054373956936161e-02,8.306214032380410117e-02
3.558079999999999927e+03,6.252159429350356845e-02,7.051754829736278651e-02
3.560007999999999811e+03,6.167755570187694047e-02,7.895990934938090788e-02
3.561936999999999898e+03,6.084755240598482828e-02,8.549168338152668412e-02
3.563864999999999782e+03,6.003244495875037501e-02,8.735245718477191446e-02
3.565794000000000324e+03,5.923138781302839107e-02,7.352630091017697822e-02
3.567722000000000207e+03,5.844521151018611249e-02,8.289122837797791021e-02
3.569650999999999840e+03,5.767310051463425680e-02,1.083129199886272431e-01
3.571579000000000178e+03,5.691585535618415292e-02,1.239126628171618449e-01
3.573507999999999811e+03,5.617269051080597819e-02,1.203296394053161578e-01
3.575435999999999694e+03,5.544437649674449631e-02,1.115947660941216668e-01
3.577364999999999782e+03,5.473015780154355525e-02,9.853824853582793253e-02
3.579292999999999665e+03,5.403077493187424807e-02,8.905962581369841757e-02
3.581222000000000207e+03,5.334550238683988255e-02,8.313073246870494870e-02
3.583150000000000091e+03,5.267505066156275007e-02,7.556073685008612983e-02
3.585079000000000178e+03,5.201872426669851279e-02,5.216953295604120910e-02
3.587007000000000062e+03,5.137720368581355501e-02,2.469269379787686347e-02
3.588935999999999694e+03,5.074982344112299870e-02,4.276462203884001667e-02
3.590864000000000033e+03,5.013723400463021562e-02,7.528494679686126290e-02
3.592792999999999665e+03,4.953879991011334027e-02,6.901478816071637823e-02
3.594720999999999549e+03,4.895514161800917918e-02,7.178483974266125500e-02
3.596650000000000091e+03,4.838565367366598480e-02,6.929281790135721764e-02
3.598577999999999975e+03,4.783092652595399841e-02,6.956702314785712105e-02
3.600507000000000062e+03,4.729038473178093227e-02,5.464810548257137413e-02
3.602434999999999945e+03,4.676458872846112058e-02,4.968834696585311406e-02
3.604364000000000033e+03,4.625299308445818269e-02,4.755595379345400886e-02
3.606291999999999916e+03,4.575612822553054571e-02,3.113762759925897683e-02
3.608220999999999549e+03,4.527347873170128878e-02,1.280480645003212459e-02
3.610149000000000342e+03,4.480554501716582649e-02,4.466043820743781367e-02
3.612077999999999975e+03,4.435184167351025053e-02,5.029773894158751091e-02
3.614005999999999858e+03,4.391283910336696295e-02,3.490263153968964360e-02
3.615934999999999945e+03,4.348808190987796252e-02,3.211583234920922791e-02
3.617862999999999829e+03,4.307801048412684963e-02,9.937832945509761373e-03
