449.3401,0.482202466667
451.2686,0.457583633333
453.1971,0.460847066667
455.1256,0.4508826
457.0541,0.400749166667
458.9826,0.359571466667
460.9111,0.3404906
462.8396,0.3453828
464.7681,0.318874066667
466.6966,0.302044166667
468.6251,0.2850201
470.5536,0.292497233333
472.4821,0.2841074
474.4106,0.268627866667
476.3391,0.241368533333
478.2676,0.20543578
480.1961,0.159948943333
482.1246,0.175524506667
484.0531,0.117533286667
485.9816,0.0573810536667
487.9101,0.0316703733333
489.8386,0.07750033
491.7671,0.03520888
493.6956,-0.0508772333333
495.6241,-0.10483082
497.5526,-0.0737958
499.4811,-0.141390686667
501.4096,-0.151158051
503.3381,-0.189464916667
505.2666,-0.170694953333
507.1951,-0.222508103333
509.1236,-0.21999428
511.0521,-0.2651946
512.9806,-0.2741499
514.9091,-0.363634433333
516.8376,-0.3075061
518.7661,-0.386978233333
520.6946,-0.385552766667
522.6231,-0.423897266667
524.5516,-0.327321533333
526.4801,-0.385925233333
528.4086,-0.304497166667
530.3371,-0.3887598
532.2656,-0.316477833333
534.1941,-0.2831488
536.1226,-0.185277346667
538.0511,-0.220957183333
539.9796,-0.1549886
541.9081,-0.13276624
543.8365,-0.0557819
545.7651,-0.0684466633333
547.6935,-0.0373057666667
549.6221,-0.00995038
551.5506,0.085007264
553.4791,0.105476061333
555.4076,0.163991876667
557.3361,0.228514066667
559.2646,0.3198377
561.1931,0.372528533333
563.1216,0.439960266667
565.05,0.470162233333
566.9786,0.528323666667
568.907,0.5793434
570.8356,0.667669033333
572.764,0.7262566
574.6926,0.777352066667
576.621,0.824444666667
578.5496,0.883594033333
580.478,0.9150593
582.4066,0.9701802
584.335,1.025761
586.2635,1.08038533333
588.192,1.12870066667
590.1205,1.15922666667
592.049,1.15771266667
593.9775,1.19814
595.906,1.25274466667
597.8345,1.285056
599.7631,1.30718766667
601.6915,1.32290266667
603.6201,1.33512833333
605.5485,1.35137066667
607.4771,1.36545433333
609.4055,1.38627466667
611.334,1.42948833333
613.2625,1.45653333333
615.191,1.451679
617.1195,1.43313933333
619.048,1.452699
620.9765,1.49332766667
622.905,1.51795466667
624.8335,1.50489
626.762,1.517192
628.6905,1.54924833333
630.619,1.58252733333
632.5475,1.58704033333
634.476,1.586224
636.4045,1.603547
638.333,1.640538
640.2615,1.64975333333
642.19,1.654177
644.1185,1.63658466667
646.047,1.63419166667
647.9755,1.65092866667
649.904,1.64891633333
651.8325,1.67621166667
653.761,1.69288933333
655.6895,1.711673
657.618,1.74589033333
659.5465,1.75171466667
661.475,1.75589966667
663.4035,1.77239933333
665.332,1.754252
667.2605,1.58503433333
669.189,1.573813
671.1175,1.75435366667
673.046,1.81089233333
674.9745,1.800901
676.903,1.78421166667
678.8315,1.814136
680.7599,1.829356
682.6885,1.816724
684.6169,1.811269
686.5455,1.822715
688.4739,1.84640466667
690.4025,1.86072266667
692.3309,1.87520866667
694.2595,1.89866533333
696.188,1.91223866667
698.1165,1.92115133333
700.045,1.91470833333
701.9734,1.91321866667
703.902,1.89883333333
705.8304,1.90244033333
707.759,1.90662733333
709.6874,1.91756433333
711.616,1.917706
713.5444,1.91768433333
715.473,1.93247233333
717.4014,1.93222333333
719.33,1.93253833333
721.2584,1.94575933333
723.187,1.958869
725.1154,1.95229
727.0439,1.953981
728.9724,1.96244933333
730.9009,1.97269266667
732.8294,1.970306
734.7579,1.95698366667
736.6864,1.95812966667
738.6149,1.95879266667
740.5434,1.94830433333
742.4719,1.95348166667
744.4004,1.963274
746.3289,1.97975733333
748.2574,1.98928633333
750.1859,1.999157
752.1144,2.01532
754.0429,2.00756666667
755.9714,1.99836666667
757.8999,2.00759
759.8284,2.006997
761.7569,2.00347766667
763.6854,2.02518033333
765.6139,2.02568466667
767.5424,2.01382766667
769.4709,2.02765033333
771.3994,2.024419
773.3279,2.026807
775.2564,2.03185633333
777.1849,2.03938166667
779.1134,2.04452366667
781.0419,2.039472
782.9704,2.02153533333
784.8989,2.01852966667
786.8274,2.03170333333
788.7559,2.031138
790.6844,2.040828
792.6129,2.06101866667
794.5414,2.04988833333
796.4699,2.04045633333
798.3984,2.045592
800.3269,2.03729733333
802.2554,2.04519033333
804.1839,2.06479066667
806.1124,2.07433866667
808.0409,2.09315733333
809.9694,2.09757666667
811.8979,2.07626033333
813.8264,2.06458833333
815.7549,2.067332
817.6833,2.080678
819.6119,2.09026466667
821.5403,2.09350266667
823.4689,2.09407233333
825.3973,2.10160166667
827.3259,2.11461233333
829.2543,2.11128066667
831.1829,2.11529633333
833.1113,2.12153966667
835.0399,2.119217
836.9683,2.12036166667
838.8969,2.142008
840.8253,2.15865433333
842.7538,2.14541933333
844.6824,2.145598
846.6108,2.15359433333
848.5394,2.15980633333
850.4678,2.15391533333
852.3964,2.12714733333
854.3248,2.10302066667
856.2534,2.101292
858.1818,2.13171033333
860.1104,2.15587966667
862.0388,2.17581933333
863.9673,2.16756066667
865.8958,2.152035
867.8243,2.14713433333
869.7528,2.13975166667
871.6813,2.13377533333
873.6098,2.146245
875.5383,2.14641733333
877.4668,2.135292
879.3953,2.14177333333
881.3238,2.14578233333
883.2523,2.15381466667
885.1808,2.164286
887.1093,2.157293
889.0378,2.16718966667
890.9663,2.191232
892.8948,2.200277
894.8233,2.194253
896.7518,2.183993
898.6803,2.195837
900.6088,2.21434466667
902.5373,2.20361766667
904.4658,2.19390866667
906.3943,2.20059066667
908.3228,2.21259666667
910.2513,2.19919666667
912.1798,2.19882266667
914.1083,2.205417
916.0368,2.22325833333
917.9653,2.235296
919.8938,2.238119
921.8223,2.231474
923.7508,2.21411233333
925.6793,2.21541766667
927.6078,2.21171666667
929.5363,2.20888233333
931.4648,2.20481666667
933.3932,2.205562
935.3218,2.23599433333
937.2502,2.25488
939.1788,2.259556
941.1072,2.26085166667
943.0358,2.24648666667
944.9643,2.252225
946.8928,2.25395533333
948.8213,2.25956833333
950.7498,2.27709333333
952.6783,2.28054966667
954.6068,2.27831133333
956.5353,2.28378733333
958.4637,2.28294233333
960.3923,2.2819
962.3207,2.27672066667
964.2493,2.27014833333
966.1777,2.27431366667
968.1063,2.28623566667
970.0347,2.30273733333
971.9633,2.307574
973.8917,2.290889
975.8203,2.29064933333
977.7487,2.29827333333
979.6772,2.28192066667
981.6057,2.29276
983.5342,2.30016666667
985.4627,2.28959433333
987.3912,2.29913166667
989.3197,2.31685733333
991.2482,2.313951
993.1768,2.31741133333
995.1052,2.32331866667
997.0338,2.31612733333
998.9622,2.32530633333
1000.891,2.33155766667
1002.819,2.32517466667
1004.748,2.33378933333
1006.676,2.330352
1008.605,2.31371333333
1010.533,2.31449766667
1012.462,2.321229
1014.39,2.314102
1016.319,2.282803
1018.247,2.27505666667
1020.176,2.31969733333
1022.104,2.34309633333
1024.033,2.32547033333
1025.961,2.32060266667
1027.89,2.34512533333
1029.818,2.35010966667
1031.747,2.32723366667
1033.675,2.31657833333
1035.604,2.346966
1037.532,2.37282066667
1039.461,2.37402
1041.389,2.34656666667
1043.318,2.33626933333
1045.246,2.33345866667
1047.175,2.32030066667
1049.103,2.31217633333
1051.032,2.32930966667
1052.96,2.34108433333
1054.889,2.33173733333
1056.817,2.33655933333
1058.746,2.36536266667
1060.674,2.38596333333
1062.603,2.375303
1064.531,2.36617433333
1066.46,2.37789466667
1068.388,2.39338966667
1070.317,2.37482133333
1072.245,2.35043733333
1074.174,2.35697433333
1076.102,2.37328966667
1078.031,2.38975933333
1079.959,2.38867866667
1081.888,2.393981
1083.816,2.38569733333
1085.745,2.38381433333
1087.673,2.39020666667
1089.602,2.390871
1091.53,2.38399466667
1093.459,2.39897866667
1095.387,2.39468633333
1097.316,2.37329
1099.244,2.384057
1101.173,2.41441566667
1103.101,2.42533933333
1105.03,2.42538
1106.958,2.446725
1108.887,2.44473766667
1110.815,2.433689
1112.744,2.44497
1114.672,2.450051
1116.601,2.43737133333
1118.529,2.42904566667
1120.458,2.45997433333
1122.386,2.47333566667
1124.315,2.45029533333
1126.243,2.46101733333
1128.172,2.505593
1130.1,2.50495666667
1132.029,2.45901966667
1133.957,2.44156566667
1135.886,2.46231366667
1137.814,2.48367533333
1139.743,2.492865
1141.671,2.494467
1143.6,2.49972133333
1145.528,2.47093566667
1147.457,2.45685766667
1149.385,2.464011
1151.314,2.497924
1153.242,2.51421233333
1155.171,2.520065
1157.099,2.53851566667
1159.028,2.53287266667
1160.956,2.48989666667
1162.885,2.47415766667
1164.813,2.502754
1166.742,2.53408733333
1168.67,2.5514
1170.599,2.53972966667
1172.527,2.530727
1174.456,2.52881233333
1176.384,2.53212166667
1178.313,2.53728633333
1180.241,2.53119
1182.17,2.533132
1184.098,2.55464133333
1186.027,2.559526
1187.955,2.53713166667
1189.884,2.51175566667
1191.812,2.52117666667
1193.741,2.538045
1195.669,2.53387366667
1197.598,2.53975133333
1199.526,2.53958433333
1201.455,2.54509666667
1203.383,2.550636
1205.312,2.53781866667
1207.24,2.544346
1209.169,2.56083566667
1211.097,2.54745766667
1213.026,2.551943
1214.954,2.54963533333
1216.883,2.56511466667
1218.811,2.58795233333
1220.74,2.59082633333
1222.668,2.59918533333
1224.597,2.60396933333
1226.525,2.58960466667
1228.453,2.598888
1230.382,2.604724
1232.311,2.584967
1234.239,2.570905
1236.167,2.58347966667
1238.096,2.60054633333
1240.025,2.60569866667
1241.953,2.606506
1243.882,2.60128933333
1245.81,2.583782
1247.739,2.56109366667
1249.667,2.57398966667
1251.596,2.611757
1253.524,2.61065033333
1255.453,2.56945033333
1257.381,2.562238
1259.31,2.57845366667
1261.238,2.600163
1263.167,2.62397533333
1265.095,2.61033233333
1267.024,2.57319466667
1268.952,2.56328133333
1270.88,2.589083
1272.809,2.616354
1274.738,2.61725333333
1276.666,2.61999566667
1278.594,2.61640766667
1280.523,2.60071166667
1282.452,2.62045566667
1284.38,2.61141033333
1286.308,2.58451266667
1288.237,2.596927
1290.166,2.62322166667
1292.094,2.645753
1294.022,2.63223333333
1295.951,2.62675633333
1297.88,2.661111
1299.808,2.65346033333
1301.736,2.63944366667
1303.665,2.65701
1305.594,2.63531133333
1307.522,2.61253366667
1309.45,2.60106866667
1311.379,2.59201833333
1313.307,2.586726
1315.236,2.61319466667
1317.164,2.63425466667
1319.093,2.63941733333
1321.021,2.64476833333
1322.95,2.65260066667
1324.878,2.65643933333
1326.807,2.672176
1328.735,2.69115833333
1330.664,2.666435
1332.592,2.649883
1334.521,2.66259466667
1336.449,2.65234833333
1338.378,2.62808533333
1340.307,2.61974533333
1342.235,2.64262766667
1344.163,2.65950066667
1346.092,2.64587766667
1348.021,2.64121533333
1349.949,2.667151
1351.877,2.697719
1353.806,2.664635
1355.734,2.629636
1357.663,2.642785
1359.591,2.67009666667
1361.52,2.650345
1363.448,2.610437
1365.377,2.62951266667
1367.305,2.649943
1369.234,2.63580033333
1371.162,2.66146666667
1373.091,2.655534
1375.019,2.641222
1376.948,2.665047
1378.876,2.67658533333
1380.805,2.69076066667
1382.733,2.698376
1384.662,2.68736466667
1386.59,2.62263
1388.519,2.614459
1390.447,2.661191
1392.376,2.65655666667
1394.304,2.603861
1396.233,2.61705966667
1398.161,2.634597
1400.09,2.65685466667
1402.018,2.69582433333
1403.947,2.675024
1405.875,2.668846
1407.804,2.69311133333
1409.732,2.69193433333
1411.661,2.67924866667
1413.589,2.6776
1415.518,2.64909433333
1417.446,2.59782733333
1419.375,2.56914866667
1421.303,2.64740166667
1423.232,2.658248
1425.16,2.652987
1427.089,2.67613833333
1429.017,2.635623
1430.946,2.615545
1432.874,2.636794
1434.803,2.62065966667
1436.731,2.58201
1438.66,2.631113
1440.588,2.68856566667
1442.517,2.69098033333
1444.445,2.67215
1446.374,2.63913033333
1448.302,2.64244033333
1450.231,2.66958866667
1452.159,2.70003433333
1454.088,2.66893933333
1456.016,2.498568
1457.945,2.47996366667
1459.873,2.633487
1461.802,2.68789233333
1463.73,2.67512066667
1465.659,2.634343
1467.587,2.65399066667
1469.516,2.654215
1471.444,2.56898933333
1473.373,2.52047766667
1475.301,2.601449
1477.23,2.67712133333
1479.158,2.715505
1481.087,2.670119
1483.015,2.67754
1484.944,2.65295866667
1486.872,2.57926633333
1488.801,2.52305
1490.729,2.539998
1492.658,2.63277133333
1494.586,2.61399466667
1496.515,2.523024
1498.443,2.533977
1500.372,2.58050533333
1502.3,2.594818
1504.229,2.52804633333
1506.157,2.353678
1508.086,2.37369933333
1510.014,2.506615
1511.943,2.55767833333
1513.871,2.55084966667
1515.8,2.492251
1517.728,2.49688966667
1519.657,2.498825
1521.585,2.428172
1523.514,2.489046
1525.442,2.505229
1527.371,2.52123266667
1529.299,2.57530866667
1531.228,2.59608766667
1533.156,2.53941266667
1535.085,2.552343
1537.013,2.570981
1538.942,2.44546833333
1540.87,2.39907333333
1542.799,2.497826
1544.727,2.55199666667
1546.656,2.60419433333
1548.584,2.62137466667
1550.513,2.64796566667
1552.441,2.63337033333
1554.37,2.569468
1556.298,2.55702333333
1558.227,2.419407
1560.155,2.428256
1562.084,2.60714266667
1564.012,2.672726
1565.941,2.67546833333
1567.869,2.65406433333
1569.798,2.671561
1571.726,2.74906266667
1573.655,2.720543
1575.583,2.61127733333
1577.512,2.64198
1579.44,2.71586533333
1581.369,2.728505
1583.297,2.73526433333
1585.226,2.782993
1587.154,2.78811866667
1589.083,2.74876766667
1591.011,2.73903766667
1592.94,2.748027
1594.868,2.78958333333
1596.797,2.77559233333
1598.725,2.73027733333
1600.654,2.70136933333
1602.582,2.69966533333
1604.511,2.74486033333
1606.439,2.72722633333
1608.368,2.71085466667
1610.296,2.710274
1612.225,2.69181133333
1614.153,2.663935
1616.082,2.6029
1618.01,2.59654966667
1619.939,2.64032066667
1621.867,2.624469
1623.796,2.58897866667
1625.724,2.62972133333
1627.653,2.636198
1629.581,2.63571966667
1631.51,2.66163233333
1633.438,2.62894866667
1635.367,2.50382266667
1637.295,2.58334133333
1639.224,2.69478266667
1641.152,2.69681333333
1643.081,2.70807633333
1645.009,2.67339333333
1646.938,2.55741333333
1648.866,2.630395
1650.795,2.6513
1652.723,2.42797566667
1654.652,2.54685133333
1656.58,2.753711
1658.509,2.810595
1660.437,2.78565866667
1662.366,2.73539466667
1664.294,2.79449433333
1666.223,2.83567933333
1668.151,2.75077566667
1670.08,2.71691333333
1672.008,2.75578166667
1673.937,2.723685
1675.865,2.70122
1677.794,2.78105633333
1679.722,2.815722
1681.651,2.75059966667
1683.579,2.54231433333
1685.508,2.58366133333
1687.436,2.69720833333
1689.365,2.72849933333
1691.293,2.79626066667
1693.222,2.76083266667
1695.15,2.63690133333
1697.079,2.650968
1699.007,2.65826666667
1700.936,2.58099633333
1702.864,2.71583233333
1704.793,2.75040333333
1706.721,2.77334633333
1708.65,2.81390933333
1710.578,2.81269366667
1712.507,2.77872833333
1714.435,2.733221
1716.364,2.65269533333
1718.292,2.67822533333
1720.221,2.78172466667
1722.149,2.80876566667
1724.078,2.844612
1726.006,2.86156066667
1727.935,2.83616033333
1729.863,2.823244
1731.792,2.76438633333
1733.72,2.65115366667
1735.649,2.71187233333
1737.577,2.78997133333
1739.506,2.73409
1741.434,2.76919033333
1743.363,2.79024866667
1745.291,2.79824433333
1747.22,2.76867733333
1749.148,2.69406833333
1751.077,2.716501
1753.005,2.85494466667
1754.934,2.85991
1756.862,2.829829
1758.791,2.83752733333
1760.719,2.80613733333
1762.648,2.830934
1764.576,2.89386566667
1766.505,2.84866166667
1768.433,2.80980933333
1770.362,2.770772
1772.29,2.6803
1774.219,2.730353
1776.147,2.81658233333
1778.076,2.848293
1780.004,2.81727
1781.933,2.82065366667
1783.861,2.85570233333
1785.79,2.87758266667
1787.718,2.89756666667
1789.647,2.85435466667
1791.575,2.74918333333
1793.504,2.75037133333
1795.432,2.82668733333
1797.361,2.82920466667
1799.289,2.80555866667
1801.218,2.811583
1803.146,2.87399933333
1805.075,2.90959366667
1807.003,2.90480433333
1808.932,2.86174833333
1810.86,2.81872333333
1812.789,2.840187
1814.717,2.88944933333
1816.646,2.896369
1818.574,2.884144
1820.503,2.86305266667
1822.431,2.850051
1824.36,2.82655833333
1826.288,2.84187866667
1828.217,2.80905966667
1830.145,2.79944033333
1832.074,2.854537
1834.002,2.86334033333
1835.931,2.86010633333
1837.859,2.84256866667
1839.788,2.87119333333
1841.716,2.90073733333
1843.645,2.81635566667
1845.573,2.80618166667
1847.502,2.859305
1849.43,2.88748
1851.359,2.87659566667
1853.287,2.86321333333
1855.216,2.88836733333
1857.144,2.91106566667
1859.073,2.891538
1861.001,2.87799433333
1862.93,2.908958
1864.858,2.94348266667
1866.786,2.955968
1868.715,2.90082633333
1870.644,2.92641266667
1872.572,2.95988566667
1874.5,2.95967966667
1876.429,2.971047
1878.358,3.00071433333
1880.286,3.019813
1882.215,3.00034866667
1884.143,3.017763
1886.072,3.05628966667
1888.0,3.041397
1889.929,3.034503
1891.857,3.053775
1893.786,3.06207066667
1895.714,3.06916566667
1897.643,3.05455566667
1899.571,3.10702466667
1901.5,3.14270133333
1903.428,3.182834
1905.357,3.209023
1907.285,3.310036
1909.214,3.37323233333
1911.142,3.22770266667
1913.071,3.15832633333
1914.999,3.248758
1916.927,3.29570466667
1918.856,3.241746
1920.785,3.20095933333
1922.713,3.209777
1924.641,3.27042933333
1926.57,3.293805
1928.499,3.326979
1930.427,3.32011266667
1932.355,3.315629
1934.284,3.35498633333
1936.213,3.37373566667
1938.141,3.38433733333
1940.069,3.329935
1941.998,3.37235533333
1943.927,3.481715
1945.855,3.61547966667
1947.783,3.60951766667
1949.712,3.468786
1951.641,3.39778633333
1953.569,3.47245833333
1955.497,3.54629266667
1957.426,3.42069
1959.354,3.37647033333
1961.283,3.51606966667
1963.211,3.51417333333
1965.14,3.50121333333
1967.068,3.62213833333
1968.997,4.165965
1970.925,4.189148
1972.854,3.510386
1974.782,3.460262
1976.711,3.520948
1978.639,3.47277033333
1980.568,3.54687266667
1982.496,3.923055
1984.425,4.243919
1986.354,4.31687433333
1988.282,3.93737766667
1990.21,3.58649766667
1992.139,3.56538466667
1994.068,4.366186
1995.996,4.433909
1997.924,4.30716033333
1999.853,4.47097866667
2001.781,5.02136866667
2003.71,5.032248
2005.638,5.01891266667
2007.567,4.26399633333
2009.495,4.37513933333
2011.424,4.51773066667
2013.352,4.10363133333
2015.281,4.434161
2017.209,5.03673966667
2019.138,4.49116066667
2021.066,4.37859033333
2022.995,4.29341666667
2024.923,4.24295566667
2026.852,4.69799466667
2028.78,5.04965633333
2030.709,5.07597166667
2032.637,4.70380533333
2034.566,4.60154033333
2036.494,4.33095033333
2038.423,4.31501133333
2040.351,5.05765866667
2042.28,5.04158333333
2044.208,4.377747
2046.137,3.72192366667
2048.065,3.36928866667
2049.994,3.067604
2051.922,2.79468666667
2053.851,2.59711033333
2055.779,2.41481133333
2057.708,2.248666
2059.636,2.10555233333
2061.565,1.98832266667
2063.493,1.887273
2065.422,1.80031966667
2067.35,1.72620133333
2069.279,1.66511333333
2071.207,1.609
2073.136,1.561189
2075.064,1.51912933333
2076.993,1.47868433333
2078.921,1.440809
2080.85,1.406018
2082.778,1.373791
2084.707,1.34437666667
2086.635,1.31703833333
2088.564,1.29312233333
2090.492,1.27010533333
2092.421,1.248932
2094.349,1.229865
2096.278,1.21238966667
2098.206,1.19541
2100.135,1.17954566667
2102.063,1.16382133333
2103.992,1.150368
2105.92,1.13764533333
2107.849,1.12462133333
2109.777,1.1127948
2111.706,1.10242653333
2113.634,1.09154363333
2115.563,1.08054036667
2117.491,1.06998913333
2119.42,1.06017186667
2121.348,1.0505132
2123.277,1.0414543
2125.205,1.03219463333
2127.134,1.02354136667
2129.062,1.01484996667
2130.991,1.0068089
2132.919,0.998532333333
2134.848,0.990713233333
2136.776,0.9824888
2138.705,0.975184333333
2140.633,0.967909566667
2142.562,0.960451233333
2144.49,0.953186133333
2146.419,0.946927633333
2148.347,0.939709066667
2150.276,0.932603466667
2152.204,0.925788133333
2154.133,0.919649766667
2156.061,0.912729533333
2157.99,0.906135433333
2159.918,0.8996055
2161.847,0.8935915
2163.775,0.887059533333
2165.704,0.880307733333
2167.632,0.8737253
2169.561,0.867926666667
2171.489,0.861583933333
2173.418,0.8553502
2175.346,0.8491186
2177.275,0.843274466667
2179.203,0.836933733333
2181.132,0.830681566667
2183.06,0.8243903
2184.989,0.8183387
2186.917,0.811656666667
2188.846,0.805706366667
2190.774,0.799557133333
2192.703,0.793582566667
2194.631,0.7874996
2196.56,0.781452733333
2198.488,0.775206
2200.417,0.7694242
2202.345,0.763389433333
2204.274,0.757828033333
2206.202,0.752042966667
2208.131,0.7464074
2210.059,0.7403268
2211.988,0.734606933333
2213.916,0.728663466667
2215.845,0.7232129
2217.773,0.7179801
2219.702,0.713035766667
2221.63,0.707517233333
2223.559,0.702368266667
2225.487,0.697163433333
2227.416,0.6922256
2229.344,0.686934533333
2231.273,0.6819632
2233.201,0.676715533333
2235.13,0.671966133333
2237.058,0.6668199
2238.987,0.6620615
2240.915,0.657523033333
2242.844,0.653088966667
2244.772,0.6483047
2246.701,0.643851533333
2248.629,0.6392243
2250.558,0.634690366667
2252.486,0.629969333333
2254.415,0.625847633333
2256.343,0.6213538
2258.272,0.6170423
2260.2,0.612775833333
2262.129,0.6087888
2264.057,0.604528933333
2265.986,0.600326
2267.914,0.595848933333
2269.843,0.592146333333
2271.771,0.587993033333
2273.7,0.583690066667
2275.628,0.579094266667
2277.557,0.574991533333
2279.485,0.570797133333
2281.414,0.566731033333
2283.342,0.562446166667
2285.271,0.5586381
2287.199,0.5544528
2289.128,0.550354366667
2291.056,0.5459807
2292.985,0.542069766667
2294.913,0.537995733333
2296.842,0.5339062
2298.77,0.5295343
2300.699,0.525835466667
2302.627,0.5219744
2304.556,0.518224366667
2306.484,0.514241433333
2308.413,0.5106866
2310.341,0.506502333333
2312.27,0.502537866667
2314.198,0.498298466667
2316.127,0.494839
2318.055,0.490786833333
2319.984,0.487463666667
2321.912,0.484507766667
2323.841,0.481291266667
2325.769,0.476648066667
2327.698,0.473441033333
2329.626,0.469921633333
2331.555,0.467328133333
2333.483,0.463436066667
2335.412,0.459870033333
2337.34,0.455827
2339.269,0.452462866667
2341.197,0.4487387
2343.126,0.4455692
2345.054,0.4412291
2346.983,0.437958566667
2348.911,0.4350031
2350.84,0.432299766667
2352.768,0.4287764
2354.697,0.426176833333
2356.625,0.421821466667
2358.554,0.420031066667
2360.482,0.417238566667
2362.411,0.413901466667
2364.339,0.4097162
2366.268,0.4070902
2368.196,0.403219833333
2370.125,0.400700233333
2372.053,0.397572
2373.982,0.394592
2375.91,0.3914464
2377.839,0.388622366667
2379.767,0.3854115
2381.696,0.3826867
2383.624,0.379774166667
2385.553,0.377078633333
2387.481,0.3740854
2389.41,0.3713912
2391.338,0.368458033333
2393.267,0.365658233333
2395.195,0.362574233333
2397.124,0.3598432
2399.052,0.357163166667
2400.981,0.354558733333
2402.909,0.351569866667
2404.838,0.348919133333
2406.766,0.3461934
2408.695,0.3437169
2410.623,0.341049666667
2412.552,0.3384893
2414.48,0.335908566667
2416.409,0.333674
2418.337,0.3310982
2420.266,0.3286188
2422.194,0.326061433333
2424.123,0.323792833333
2426.051,0.321281566667
2427.98,0.318974633333
2429.908,0.316531466667
2431.837,0.3143558
2433.765,0.312042066667
2435.694,0.309915733333
2437.622,0.307547133333
2439.551,0.3054198
2441.479,0.303105
2443.408,0.3011168
2445.336,0.2989075
2447.265,0.296984633333
2449.193,0.294870066667
2451.122,0.293091333333
2453.05,0.291019833333
2454.979,0.2892302
2456.907,0.287470533333
2458.836,0.285962233333
2460.764,0.284469966667
2462.693,0.283393733333
2464.621,0.282255433333
2466.55,0.2814347
2468.478,0.280559
2470.406,0.280005733333
2472.335,0.279426166667
2474.264,0.279398633333
2476.192,0.279341166667
2478.121,0.279495533333
2480.049,0.2796008
2481.978,0.2800015
2483.906,0.279843533333
2485.834,0.279612533333
2487.763,0.2789324
2489.692,0.277935366667
2491.62,0.276249933333
2493.549,0.2742177
2495.477,0.271216733333
2497.406,0.2678577
2499.334,0.263866233333
2501.262,0.260087366667
2503.191,0.256162233333
2505.12,0.2521968
2507.048,0.248117366667
2508.977,0.244532433333
2510.905,0.240839433333
2512.833,0.237447066667
2514.762,0.234074866667
2516.69,0.2310463
2518.619,0.227940966667
2520.548,0.225206666667
2522.476,0.222318133333
2524.405,0.219829433333
2526.333,0.217227
2528.261,0.214853766667
2530.19,0.2122606
2532.119,0.2100254
2534.047,0.207768033333
2535.976,0.205795133333
2537.904,0.2037273
2539.833,0.20178814
2541.761,0.19970663
2543.689,0.198208306667
2545.618,0.196618886667
2547.547,0.195129576667
2549.475,0.1934297
2551.404,0.191987966667
2553.332,0.190504453333
2555.26,0.18915765
2557.189,0.18746134
2559.117,0.186056833333
2561.046,0.184545613333
2562.975,0.183034803333
2564.903,0.181243683333
2566.832,0.179550006667
2568.76,0.177649963333
2570.688,0.17594473
2572.617,0.174077596667
2574.545,0.172424116667
2576.474,0.17047724
2578.403,0.168632643333
2580.331,0.166725063333
2582.26,0.165077923333
2584.188,0.163122293333
2586.116,0.161356303333
2588.045,0.159503523333
2589.973,0.157825416667
2591.902,0.155989786667
2593.831,0.154421516667
2595.759,0.152548626667
2597.688,0.150859106667
2599.616,0.149047736667
2601.544,0.14741662
2603.473,0.145570956667
2605.401,0.14415834
2607.33,0.142666326667
2609.259,0.141290436667
2611.187,0.139780183333
2613.115,0.138446333333
2615.044,0.13704176
2616.972,0.13589819
2618.901,0.134381813333
2620.829,0.13319009
2622.758,0.1319014
2624.687,0.130877333333
2626.615,0.129583676667
2628.543,0.128462093333
2630.472,0.127230206667
2632.4,0.12614972
2634.329,0.124872853333
2636.258,0.123785056667
2638.186,0.122488826667
2640.115,0.121367993333
2642.043,0.119963536667
2643.971,0.118618826667
2645.9,0.117098613333
2647.828,0.115782116667
2649.757,0.114228346667
2651.686,0.112838584667
2653.614,0.111142519667
2655.542,0.109538228333
2657.471,0.107703885667
2659.399,0.106019894333
2661.328,0.104122359667
2663.256,0.1023332448
2665.185,0.100281718667
2667.114,0.0984492393333
2669.042,0.096529318
2670.97,0.0946256756667
2672.899,0.09245421
2674.827,0.09061074
2676.756,0.08843035
2678.684,0.0862996166667
2680.613,0.0839465133333
2682.542,0.0817551766667
2684.47,0.0795262266667
2686.398,0.07744306
2688.327,0.0749395766667
2690.255,0.0726884466667
2692.184,0.0703165566667
2694.112,0.0681498233333
2696.041,0.0657838666667
2697.969,0.0634346533333
2699.898,0.0610160033333
2701.826,0.05882504
2703.755,0.0563609933333
2705.683,0.0542371066667
2707.612,0.05202983
2709.54,0.0500382
2711.469,0.0478525733333
2713.397,0.0458791466667
2715.326,0.04367604
2717.254,0.04172389
2719.183,0.0396821833333
2721.111,0.03796844
2723.04,0.03611448
2724.969,0.0345965233333
2726.897,0.0329028733333
2728.825,0.0314925866667
2730.754,0.02995557
2732.682,0.0285556566667
2734.611,0.0271536433333
2736.539,0.0261016566667
2738.468,0.0247396
2740.396,0.0234950366667
2742.325,0.02217325
2744.253,0.02110791
2746.182,0.01995786
2748.11,0.0189001466667
2750.039,0.0176767633333
2751.967,0.0168130933333
2753.896,0.0157313266667
2755.824,0.0146747866667
2757.753,0.0135142366667
2759.681,0.01276079
2761.61,0.0116906433333
2763.538,0.01066473
2765.467,0.00967300333333
2767.395,0.00889308
2769.324,0.00785613
2771.252,0.00709927333333
2773.181,0.00624574333333
2775.109,0.00544722
2777.038,0.00444863
2778.966,0.00371737666667
2780.895,0.00281976
2782.823,0.00204754
2784.752,0.00111233333333
2786.68,0.00047751
2788.609,-0.000382108666667
2790.537,-0.00111488366667
2792.466,-0.001910757
2794.394,-0.00251154966667
2796.323,-0.003374128
2798.251,-0.003987935
2800.18,-0.00478368566667
2802.108,-0.00527342733333
2804.037,-0.00599131633333
2805.965,-0.006671395
2807.894,-0.00747198166667
2809.822,-0.00808407766667
2811.751,-0.00893630985
2813.679,-0.00973240833333
2815.608,-0.0106470696667
2817.536,-0.011376343
2819.465,-0.0122721223333
2821.393,-0.0129775653333
2823.322,-0.0139030316667
2825.25,-0.0146358743333
2827.179,-0.0155650863333
2829.107,-0.016348331
2831.036,-0.0175059133333
2832.964,-0.018530739
2834.893,-0.0195126033333
2836.821,-0.0202111166667
2838.75,-0.0213313266667
2840.678,-0.02237958
2842.607,-0.0234224766667
2844.535,-0.02409992
2846.464,-0.0249940666667
2848.392,-0.0256879666667
2850.321,-0.0266866066667
2852.249,-0.0274706633333
2854.178,-0.0284007333333
2856.106,-0.0292322333333
2858.035,-0.0302824266667
2859.963,-0.0312108533333
2861.892,-0.0323928666667
2863.82,-0.03335133
2865.749,-0.03431826
2867.677,-0.0351262766667
2869.606,-0.0360978466667
2871.534,-0.03696008
2873.463,-0.0380442066667
2875.391,-0.0390068666667
2877.32,-0.0400912166667
2879.248,-0.04100154
2881.177,-0.04212046
2883.105,-0.04298711
2885.034,-0.04410671
2886.962,-0.0450694233333
2888.891,-0.0461805233333
2890.819,-0.0470225533333
2892.748,-0.04819475
2894.676,-0.04921211
2896.605,-0.0502596733333
2898.533,-0.0512342566667
2900.462,-0.0524242333333
2902.39,-0.0532316133333
2904.319,-0.05432218
2906.247,-0.0552934033333
2908.176,-0.0561944333333
2910.104,-0.0568652033333
2912.033,-0.0577805
2913.961,-0.0583992666667
2915.89,-0.0591957366667
2917.818,-0.0598043033333
2919.747,-0.06046855
2921.675,-0.06103047
2923.604,-0.0618521966667
2925.532,-0.06225272
2927.461,-0.0629040066667
2929.389,-0.0634575533333
2931.318,-0.0642724866667
2933.246,-0.06493342
2935.175,-0.06575212
2937.103,-0.0662034833333
2939.032,-0.06674114
2940.96,-0.0671972833333
2942.889,-0.06771741
2944.817,-0.0679076033333
2946.746,-0.06842975
2948.674,-0.06875725
2950.603,-0.06923554
2952.531,-0.0692933033333
2954.46,-0.0696623433333
2956.388,-0.0699816166667
2958.317,-0.0703688633333
2960.245,-0.0705073666667
2962.174,-0.0709453866667
2964.102,-0.0712941466667
2966.031,-0.0720692333333
2967.959,-0.0726096066667
2969.888,-0.07329449
2971.816,-0.0739466933333
2973.745,-0.0747793166667
2975.673,-0.0754876633333
2977.602,-0.0766136833333
2979.53,-0.0775748233333
2981.459,-0.0788120466667
2983.387,-0.0799910413333
2985.316,-0.0812765373333
2987.244,-0.0825142383333
2989.173,-0.0839832006667
2991.101,-0.0853092086667
2993.03,-0.0870951573333
2994.958,-0.0885168119
2996.887,-0.0901094036667
2998.815,-0.0915966983333
3000.744,-0.0931693646667
3002.672,-0.0945993736667
3004.601,-0.0963586146667
3006.529,-0.0980259666667
3008.458,-0.0998503133333
3010.386,-0.101432213333
3012.315,-0.10315316
3014.243,-0.104654296667
3016.172,-0.10639276
3018.1,-0.107968326667
3020.029,-0.109658303333
3021.957,-0.111092503333
3023.886,-0.1125421
3025.814,-0.113839713333
3027.743,-0.115336513333
3029.671,-0.116656026667
3031.6,-0.11816409
3033.528,-0.11916316
3035.457,-0.120361463333
3037.385,-0.121496806667
3039.314,-0.122633716667
3041.242,-0.123627993333
3043.171,-0.124957543333
3045.099,-0.125904186667
3047.028,-0.127042073333
3048.956,-0.128056153333
3050.885,-0.129088173333
3052.813,-0.129837293333
3054.742,-0.13076931
3056.67,-0.131627236667
3058.599,-0.132670473333
3060.527,-0.133472433333
3062.456,-0.134490643333
3064.384,-0.135340493333
3066.313,-0.13636245
3068.241,-0.136883163333
3070.17,-0.13749234
3072.098,-0.138204673333
3074.027,-0.13917402
3075.955,-0.139689413333
3077.884,-0.140471636667
3079.812,-0.14103183
3081.741,-0.141792803333
3083.669,-0.142479593333
3085.598,-0.1431768
3087.526,-0.143729696667
3089.455,-0.144501883333
3091.383,-0.1450496
3093.312,-0.145616826667
3095.24,-0.146088906667
3097.169,-0.146731933333
3099.097,-0.147164466667
3101.026,-0.147854063333
3102.954,-0.148333976667
3104.883,-0.148900506667
3106.811,-0.14923572
3108.74,-0.149803466667
3110.668,-0.150197523333
3112.597,-0.150786276667
3114.525,-0.151395836667
3116.454,-0.152000056667
3118.382,-0.152245706667
3120.311,-0.152825813333
3122.239,-0.15321962
3124.167,-0.153927306667
3126.096,-0.15437826
3128.025,-0.154918346667
3129.953,-0.15524923
3131.882,-0.15577672
3133.81,-0.156091033333
3135.739,-0.156663266667
3137.667,-0.157031906667
3139.595,-0.15767204
3141.524,-0.158021183333
3143.453,-0.158481086667
3145.381,-0.158811786667
3147.31,-0.159447976667
3149.238,-0.159682423333
3151.167,-0.160031586667
3153.095,-0.160391256667
3155.023,-0.1609205
3156.952,-0.161277446667
3158.881,-0.16194489
3160.809,-0.162285103333
3162.738,-0.16256711
3164.666,-0.162727463333
3166.594,-0.16325893
3168.523,-0.163560926667
3170.452,-0.163992436667
3172.38,-0.164288316667
3174.309,-0.164717296667
3176.237,-0.164900073333
3178.166,-0.165359243333
3180.094,-0.16566017
3182.022,-0.166075206667
3183.951,-0.166257036667
3185.88,-0.16682677
3187.808,-0.167115603333
3189.737,-0.167576053333
3191.665,-0.16778367
3193.594,-0.16817795
3195.522,-0.16848837
3197.45,-0.168971436667
3199.379,-0.169098943333
3201.308,-0.169338003333
3203.236,-0.169601673333
3205.165,-0.170084493333
3207.093,-0.170302426667
3209.021,-0.170708846667
3210.95,-0.1708766
3212.878,-0.171357316667
3214.807,-0.171632913333
3216.736,-0.17206963
3218.664,-0.172125436667
3220.593,-0.172483683333
3222.521,-0.17261639
3224.449,-0.172920526667
3226.378,-0.17317476
3228.306,-0.173584116667
3230.235,-0.17371215
3232.164,-0.174070366667
3234.092,-0.174357893333
3236.021,-0.174785636667
3237.949,-0.17512731
3239.877,-0.17555094
3241.806,-0.175619896667
3243.734,-0.176046413333
3245.663,-0.176318156667
3247.592,-0.17671849
3249.52,-0.17679036
3251.448,-0.17720052
3253.377,-0.177255313333
3255.305,-0.177342803333
3257.234,-0.177600583333
3259.162,-0.178287196667
3261.091,-0.17855362
3263.02,-0.178863896667
3264.948,-0.178997186667
3266.876,-0.179312526667
3268.805,-0.17950942
3270.733,-0.179863733333
3272.662,-0.180011286667
3274.591,-0.18030993
3276.519,-0.180480843333
3278.448,-0.181022696667
3280.376,-0.181114653333
3282.304,-0.18140617
3284.233,-0.181488476667
3286.161,-0.181800303333
3288.09,-0.18188164
3290.019,-0.182225653333
3291.947,-0.182619426667
3293.875,-0.183093816667
3295.804,-0.183064816667
3297.732,-0.183279713333
3299.661,-0.183418056667
3301.589,-0.183826016667
3303.518,-0.183907426667
3305.447,-0.18403606
3307.375,-0.184126463333
3309.303,-0.184690003333
3311.232,-0.18478371
3313.16,-0.1850443
3315.089,-0.185239233333
3317.017,-0.185382033333
3318.946,-0.185474366667
3320.875,-0.186023133333
3322.803,-0.1862313
3324.731,-0.186603266667
3326.66,-0.186691833333
3328.588,-0.186892633333
3330.517,-0.1870023
3332.445,-0.187305633333
3334.374,-0.187415766667
3336.302,-0.187820766667
3338.231,-0.187871033333
3340.159,-0.188111266667
3342.088,-0.188325466667
3344.016,-0.188672966667
3345.945,-0.188605633333
3347.873,-0.188860133333
3349.802,-0.189028233333
3351.73,-0.189410833333
3353.659,-0.1896975
3355.587,-0.1899645
3357.516,-0.1899993
3359.444,-0.1902302
3361.373,-0.190278333333
3363.302,-0.190795533333
3365.23,-0.190878666667
3367.158,-0.190944533333
3369.087,-0.1911194
3371.015,-0.191662366667
3372.944,-0.191897366667
3374.872,-0.192140666667
3376.801,-0.192120166667
3378.729,-0.192466066667
3380.658,-0.192519466667
3382.586,-0.192585
3384.515,-0.1926038
3386.443,-0.193089666667
3388.372,-0.1931585
3390.3,-0.1932107
3392.229,-0.19347
3394.157,-0.193953466667
3396.086,-0.193872666667
3398.014,-0.193889533333
3399.943,-0.194042133333
3401.871,-0.194499266667
3403.8,-0.194591933333
3405.728,-0.194930133333
3407.657,-0.1949896
3409.585,-0.195375033333
3411.514,-0.195297666667
3413.442,-0.1954428
3415.371,-0.195717933333
3417.299,-0.195974966667
3419.228,-0.1959048
3421.156,-0.196297766667
3423.085,-0.196338666667
3425.013,-0.196593233333
3426.942,-0.1965322
3428.87,-0.196833833333
3430.799,-0.197051033333
3432.727,-0.1972758
3434.656,-0.197398366667
3436.584,-0.197808633333
3438.513,-0.197973166667
3440.441,-0.198113233333
3442.37,-0.1980563
3444.298,-0.1984431
3446.227,-0.1985341
3448.155,-0.198726933333
3450.084,-0.198819733333
3452.012,-0.199150233333
3453.941,-0.1993156
3455.869,-0.199580566667
3457.798,-0.1994835
3459.726,-0.199603833333
3461.655,-0.199551033333
3463.583,-0.199722666667
3465.512,-0.1997007
3467.44,-0.199987866667
3469.369,-0.200247266667
3471.297,-0.200399933333
3473.226,-0.200248266667
3475.154,-0.200611433333
3477.083,-0.2007333
3479.011,-0.200943533333
3480.94,-0.201001466667
3482.868,-0.201118566667
3484.797,-0.200866433333
3486.725,-0.200946666667
3488.654,-0.201099166667
3490.582,-0.201441533333
3492.511,-0.201353533333
3494.439,-0.201489766667
3496.368,-0.201668733333
3498.296,-0.201791933333
3500.225,-0.2015739
3502.153,-0.201853266667
3504.082,-0.201951766667
3506.01,-0.20216
3507.939,-0.2019911
3509.867,-0.201532166667
3511.796,-0.201248433333
3513.724,-0.201643933333
3515.653,-0.201963266667
3517.581,-0.2023509
3519.51,-0.2023722
3521.438,-0.202539066667
3523.367,-0.2023142
3525.295,-0.2024046
3527.224,-0.202550166667
3529.152,-0.202643666667
3531.081,-0.202352233333
3533.009,-0.202483266667
3534.938,-0.202639
3536.866,-0.203126733333
3538.795,-0.2033002
3540.723,-0.203446433333
3542.652,-0.203361933333
3544.58,-0.203504166667
3546.509,-0.2034256
3548.437,-0.20358
3550.366,-0.203419133333
3552.294,-0.203363466667
3554.223,-0.2026857
3556.151,-0.202159266667
3558.08,-0.201424233333
3560.008,-0.200643
3561.937,-0.199405066667
3563.865,-0.198597766667
3565.794,-0.198545433333
3567.722,-0.199802733333
3569.651,-0.2005813
3571.579,-0.2013506
3573.508,-0.201969166667
3575.436,-0.202698866667
3577.365,-0.203107033333
3579.293,-0.203265133333
3581.222,-0.202924166667
3583.15,-0.202763533333
3585.079,-0.2025474
3587.007,-0.202139733333
3588.936,-0.200834933333
3590.864,-0.2000587
3592.793,-0.198263566667
3594.721,-0.195304
3596.65,-0.1913231
3598.578,-0.1899536
3600.507,-0.193547166667
3602.435,-0.199921666667
3604.364,-0.2038729
3606.292,-0.206135233333
3608.221,-0.207020433333
3610.149,-0.206931333333
3612.078,-0.206562766667
3614.006,-0.206775733333
3615.935,-0.207087066667
3617.863,-0.207197233333
3619.792,-0.207287666667
3621.72,-0.208291166667
3623.649,-0.208928733333
3625.577,-0.208923466667
3627.506,-0.208509366667
3629.434,-0.208493
3631.363,-0.209386333333
3633.291,-0.210407033333
3635.22,-0.2105773
3637.148,-0.2110379
3639.077,-0.211190933333
3641.005,-0.2113687
3642.934,-0.211631466667
3644.862,-0.2119329
3646.791,-0.2117861
3648.719,-0.211989533333
3650.648,-0.2116218
3652.576,-0.2119079
3654.505,-0.211971966667
3656.433,-0.212031566667
3658.362,-0.212108433333
3660.29,-0.2123501
3662.219,-0.212554266667
3664.147,-0.212809
3666.076,-0.2128493
3668.004,-0.213185566667
3669.933,-0.212709466667
3671.861,-0.212165033333
3673.79,-0.2124695
3675.718,-0.213258
3677.647,-0.212744033333
3679.575,-0.212791933333
3681.504,-0.213034333333
3683.432,-0.213763466667
3685.361,-0.2141372
3687.289,-0.214373733333
3689.218,-0.2135008
3691.146,-0.212786466667
3693.075,-0.212694066667
3695.003,-0.2133945
3696.932,-0.213758733333
3698.86,-0.2139761
3700.789,-0.213637133333
3702.717,-0.213729066667
3704.646,-0.2140924
3706.574,-0.214666566667
3708.503,-0.214733
3710.431,-0.215238633333
3712.36,-0.2147666
3714.288,-0.214530933333
3716.217,-0.214398533333
3718.145,-0.214763333333
3720.074,-0.214871766667
3722.002,-0.215049933333
3723.931,-0.2148992
3725.859,-0.215570466667
3727.788,-0.2158027
3729.716,-0.215820166667
3731.645,-0.2154061
3733.573,-0.215246166667
3735.502,-0.2152184
3737.43,-0.215254533333
3739.359,-0.215057766667
3741.287,-0.2153661
3743.216,-0.215534233333
3745.144,-0.215405233333
3747.073,-0.215382033333
3749.001,-0.215537133333
3750.93,-0.215316366667
3752.858,-0.215821933333
3754.787,-0.215901266667
3756.715,-0.2160741
3758.644,-0.2157343
3760.572,-0.2154992
3762.5,-0.215477566667
3764.429,-0.216085966667
3766.358,-0.216066466667
3768.286,-0.2159856
3770.215,-0.2156561
3772.143,-0.2159541
3774.072,-0.216152
3776.0,-0.216338233333
3777.928,-0.21657
3779.857,-0.217039133333
3781.786,-0.216954
3783.714,-0.217192866667
3785.643,-0.216888433333
3787.571,-0.217068733333
3789.5,-0.217308066667
3791.428,-0.217203166667
3793.356,-0.217082566667
3795.285,-0.217422533333
3797.214,-0.2173834
3799.142,-0.217545833333
3801.071,-0.2173244
3802.999,-0.217161433333
3804.927,-0.217200866667
3806.856,-0.2173113
3808.785,-0.2173624
3810.713,-0.217498666667
3812.642,-0.2175736
3814.57,-0.217739433333
3816.499,-0.2171034
3818.427,-0.2174171
3820.355,-0.217329433333
3822.284,-0.2170114
3824.213,-0.217418266667
3826.141,-0.2177766
3828.07,-0.217632233333
3829.998,-0.218218033333
3831.927,-0.2180219
3833.855,-0.217435633333
3835.783,-0.217650066667
3837.712,-0.217990966667
3839.641,-0.216940166667
3841.569,-0.217288233333
3843.498,-0.2176236
3845.426,-0.217803966667
3847.354,-0.218123566667
3849.283,-0.218473266667
3851.211,-0.2182261
3853.14,-0.217503633333
3855.069,-0.217579566667
3856.997,-0.218653666667
3858.926,-0.218816666667
3860.854,-0.218848133333
3862.782,-0.218728166667
3864.711,-0.218828033333
3866.639,-0.218663133333
3868.568,-0.218724933333
3870.497,-0.218443833333
3872.425,-0.219056
3874.354,-0.218983233333
3876.282,-0.218640266667
3878.21,-0.2186463
3880.139,-0.218981233333
3882.067,-0.2187631
3883.996,-0.218928433333
3885.925,-0.2184566
3887.853,-0.2187184
3889.781,-0.219263333333
3891.71,-0.219651566667
3893.638,-0.219468866667
3895.567,-0.219438033333
3897.495,-0.219418766667
3899.424,-0.219391566667
3901.353,-0.2187111
3903.281,-0.219195633333
3905.209,-0.2191552
3907.138,-0.219248266667
3909.066,-0.219163566667
3910.995,-0.219295033333
3912.924,-0.219216
3914.852,-0.2195004
3916.781,-0.219787766667
3918.709,-0.2200897
3920.637,-0.219766
3922.566,-0.219270833333
3924.494,-0.219083233333
3926.423,-0.219591566667
3928.352,-0.219820166667
3930.28,-0.219690466667
3932.208,-0.219541533333
3934.137,-0.2199473
3936.065,-0.219917566667
3937.994,-0.220021666667
3939.922,-0.219757466667
3941.851,-0.219456233333
3943.78,-0.219309566667
3945.708,-0.219504533333
3947.636,-0.219515933333
3949.565,-0.219787033333
3951.493,-0.219709366667
3953.422,-0.2198442
3955.35,-0.219781733333
3957.279,-0.220008733333
3959.208,-0.2199617
3961.136,-0.219953266667
3963.064,-0.2198372
3964.993,-0.219953666667
3966.921,-0.219937266667
3968.85,-0.220224433333
3970.778,-0.220371866667
3972.707,-0.220347733333
3974.635,-0.219952566667
3976.564,-0.220015966667
3978.492,-0.2202418
3980.421,-0.220507466667
3982.349,-0.2204251
3984.278,-0.220521433333
3986.206,-0.2203363
3988.135,-0.220385966667
3990.063,-0.220404
3991.992,-0.220560533333
3993.92,-0.220678366667
3995.849,-0.2207028
3997.777,-0.220535133333
3999.706,-0.220750766667
4001.634,-0.2207144
4003.563,-0.220732333333
4005.491,-0.2206192
4007.42,-0.220510233333
4009.348,-0.220456566667
4011.277,-0.220823633333
4013.205,-0.220539133333
4015.134,-0.22062
4017.063,-0.220691066667
4018.991,-0.220739966667
4020.919,-0.2206891
4022.848,-0.220824033333
4024.776,-0.220645633333
4026.705,-0.220680566667
4028.633,-0.221005
4030.562,-0.221321633333
4032.49,-0.2211109
4034.419,-0.221156833333
4036.347,-0.221017466667
4038.276,-0.221032166667
4040.204,-0.220921233333
4042.133,-0.2208442
4044.061,-0.220830766667
4045.99,-0.221043733333
4047.918,-0.220968
4049.847,-0.2209539
4051.775,-0.220900266667
4053.704,-0.220977466667
4055.632,-0.221057033333
4057.561,-0.221314433333
4059.489,-0.221379433333
4061.418,-0.221454033333
4063.346,-0.221318533333
4065.275,-0.2213397
4067.203,-0.221189166667
4069.132,-0.221269833333
4071.06,-0.2211927
4072.989,-0.2213043
4074.917,-0.221172566667
4076.846,-0.2211423
4078.774,-0.221123166667
4080.703,-0.2213589
4082.631,-0.221355666667
4084.56,-0.221360266667
4086.488,-0.221044866667
4088.417,-0.221032033333
4090.345,-0.2211416
4092.274,-0.221308766667
4094.202,-0.2213751
4096.131,-0.221473066667
4098.059,-0.221344033333
4099.988,-0.221311366667
4101.917,-0.221372433333
4103.845,-0.221389466667
4105.773,-0.221270166667
4107.702,-0.221594833333
4109.63,-0.221555766667
4111.559,-0.221512233333
4113.487,-0.221644066667
4115.416,-0.221544633333
4117.344,-0.221065433333
4119.273,-0.2210666
4121.201,-0.221322566667
4123.13,-0.221488533333
4125.058,-0.2212363
4126.987,-0.221386333333
4128.916,-0.221575666667
4130.844,-0.221638266667
4132.772,-0.22149
4134.701,-0.221707333333
4136.629,-0.2217034
4138.558,-0.221683166667
4140.486,-0.221396933333
4142.415,-0.2211924
4144.343,-0.221116466667
4146.272,-0.2211701
4148.2,-0.221009933333
4150.129,-0.221287266667
4152.057,-0.2214595
4153.986,-0.221399533333
4155.914,-0.221124733333
4157.843,-0.221166966667
4159.771,-0.2213274
4161.7,-0.221447666667
4163.628,-0.2213517
4165.557,-0.221613733333
4167.485,-0.2215173
4169.414,-0.221474933333
4171.342,-0.221470733333
4173.271,-0.221374
4175.199,-0.221158833333
4177.128,-0.221276333333
4179.056,-0.221093033333
4180.985,-0.220978333333
4182.913,-0.220948866667
4184.842,-0.221384666667
4186.77,-0.221627866667
4188.699,-0.221553533333
4190.627,-0.2213757
4192.556,-0.221112733333
4194.484,-0.220803866667
4196.413,-0.221021133333
4198.341,-0.221216
4200.27,-0.221306033333
4202.198,-0.220987133333
4204.127,-0.221240666667
4206.055,-0.221201033333
4207.984,-0.221041
4209.912,-0.221231033333
4211.841,-0.2214205
4213.769,-0.2212858
4215.698,-0.2212091
4217.626,-0.220880333333
4219.555,-0.220836866667
4221.483,-0.220850766667
4223.412,-0.2211135
4225.34,-0.2213092
4227.269,-0.221506266667
4229.197,-0.2215896
4231.125,-0.2215853
4233.054,-0.2214309
4234.983,-0.221394633333
4236.911,-0.221321966667
4238.84,-0.2212349
4240.768,-0.221169733333
4242.697,-0.221266633333
4244.625,-0.2212018
4246.554,-0.221276533333
4248.482,-0.221170333333
4250.411,-0.2211348
4252.339,-0.220905633333
4254.268,-0.220616133333
4256.196,-0.220549
4258.125,-0.2207979
4260.053,-0.220722466667
4261.982,-0.220860866667
4263.91,-0.220935233333
4265.839,-0.2211619
4267.767,-0.221056166667
4269.696,-0.220950666667
4271.624,-0.221020866667
4273.553,-0.220934833333
4275.481,-0.2207052
4277.41,-0.220938733333
4279.338,-0.221213066667
4281.267,-0.221329
4283.195,-0.2210187
4285.124,-0.220626533333
4287.052,-0.2206199
4288.98,-0.221112
4290.909,-0.2209435
4292.838,-0.220945033333
4294.766,-0.220992133333
4296.695,-0.2208764
4298.623,-0.220771433333
4300.552,-0.220712233333
4302.48,-0.220693566667
4304.409,-0.220973733333
4306.337,-0.2212533
4308.266,-0.221148333333
4310.194,-0.220741033333
4312.123,-0.220732933333
4314.051,-0.220832533333
4315.979,-0.220625833333
4317.908,-0.220521866667
4319.836,-0.220377633333
4321.765,-0.220262766667
4323.694,-0.220547633333
4325.622,-0.220776033333
4327.551,-0.2207755
4329.479,-0.220504433333
4331.408,-0.2204548
4333.336,-0.220510333333
4335.265,-0.220564766667
4337.193,-0.220412666667
4339.122,-0.220387966667
4341.05,-0.220662233333
4342.979,-0.220780533333
4344.907,-0.2205944
4346.835,-0.220577933333
4348.764,-0.220691333333
4350.693,-0.2206098
4352.621,-0.220481
4354.55,-0.220269033333
4356.478,-0.2201896
4358.407,-0.220239
4360.335,-0.220147133333
4362.264,-0.220343266667
4364.192,-0.220353966667
4366.121,-0.2205051
4368.049,-0.2204793
4369.978,-0.220475866667
4371.906,-0.220415133333
4373.834,-0.220483766667
4375.763,-0.2204739
4377.691,-0.220093766667
4379.62,-0.2200628
4381.549,-0.219950266667
4383.477,-0.219897233333
4385.406,-0.220150166667
4387.334,-0.220161733333
4389.263,-0.2200576
4391.191,-0.220159066667
4393.12,-0.2201427
4395.048,-0.219803933333
4396.977,-0.219716433333
4398.905,-0.2199152
4400.833,-0.220042133333
4402.762,-0.220165933333
4404.69,-0.220387866667
4406.619,-0.220381033333
4408.547,-0.220039
4410.476,-0.2197128
4412.405,-0.2198085
4414.333,-0.219681433333
4416.262,-0.219579466667
4418.19,-0.219801133333
4420.119,-0.2199366
4422.047,-0.2200468
4423.976,-0.220264233333
4425.904,-0.220196966667
4427.833,-0.2198937
4429.761,-0.2197512
4431.689,-0.2197122
4433.618,-0.219503
4435.546,-0.219598433333
4437.475,-0.219395633333
4439.403,-0.219457
4441.332,-0.2198321
4443.261,-0.2199195
4445.189,-0.219413133333
4447.118,-0.219470733333
4449.046,-0.219922033333
4450.975,-0.2197085
4452.903,-0.2194361
4454.832,-0.219427466667
4456.76,-0.219318166667
4458.688,-0.219140933333
4460.617,-0.2191354
4462.545,-0.219231766667
4464.474,-0.219534166667
4466.402,-0.219341033333
4468.331,-0.218974333333
4470.26,-0.219236766667
4472.188,-0.219345533333
4474.117,-0.2191192
4476.045,-0.219248733333
4477.974,-0.219155866667
4479.902,-0.218787766667
4481.831,-0.2186371
4483.759,-0.2189178
4485.688,-0.219085733333
4487.616,-0.219366766667
4489.544,-0.219358733333
4491.473,-0.2188996
4493.401,-0.218583066667
4495.33,-0.218666866667
4497.258,-0.218559866667
4499.187,-0.218859566667
4501.116,-0.218958733333
4503.044,-0.218669866667
4504.973,-0.218686
4506.901,-0.2186412
4508.83,-0.218645066667
4510.758,-0.218665066667
4512.687,-0.218520833333
4514.615,-0.218434233333
4516.543,-0.218485066667
4518.472,-0.218498266667
4520.4,-0.218519133333
4522.329,-0.218756633333
4524.257,-0.218855033333
4526.186,-0.218819766667
4528.114,-0.218817866667
4530.043,-0.218806666667
4531.972,-0.218663466667
4533.9,-0.218644866667
4535.829,-0.2184015
4537.757,-0.2183995
4539.686,-0.218421466667
4541.614,-0.218509833333
4543.542,-0.2183859
4545.471,-0.2182405
4547.399,-0.218405833333
4549.328,-0.218447266667
4551.256,-0.2183371
4553.185,-0.218420766667
4555.113,-0.218354733333
4557.042,-0.218191066667
4558.971,-0.217972366667
4560.899,-0.2180488
4562.828,-0.217832233333
4564.756,-0.217941833333
4566.685,-0.217908066667
4568.613,-0.217919966667
4570.542,-0.2182132
4572.47,-0.218419166667
4574.398,-0.2183276
4576.327,-0.218325733333
4578.255,-0.218214166667
4580.184,-0.2180381
4582.112,-0.218168533333
4584.041,-0.218629933333
4585.969,-0.218487866667
4587.898,-0.218127666667
4589.827,-0.2179976
4591.755,-0.218201733333
4593.684,-0.217988266667
4595.612,-0.2181812
4597.541,-0.2184898
4599.469,-0.218258766667
4601.397,-0.217782633333
4603.326,-0.218001833333
4605.254,-0.2180553
4607.183,-0.2179188
4609.111,-0.2181957
4611.04,-0.218189166667
4612.968,-0.217733
4614.897,-0.2177084
4616.825,-0.217617733333
4618.754,-0.217723933333
4620.683,-0.2176795
4622.611,-0.2177393
4624.54,-0.217723366667
4626.468,-0.217836033333
4628.396,-0.218050266667
4630.325,-0.217946833333
4632.253,-0.217657733333
4634.182,-0.2179177
4636.11,-0.2179729
4638.039,-0.218024833333
4639.967,-0.217664866667
4641.896,-0.2178862
4643.824,-0.2176458
4645.753,-0.217535433333
4647.682,-0.217672566667
4649.61,-0.2178674
4651.539,-0.217573766667
4653.467,-0.217328266667
4655.396,-0.2175255
4657.324,-0.217863133333
4659.252,-0.217750766667
4661.181,-0.2175157
4663.109,-0.217310266667
4665.038,-0.2171984
4666.966,-0.216954333333
4668.895,-0.216883966667
4670.823,-0.2171636
4672.752,-0.217536733333
4674.68,-0.217491366667
4676.609,-0.217450066667
4678.538,-0.2174435
4680.466,-0.217470266667
4682.395,-0.217364966667
4684.323,-0.2173362
4686.251,-0.217090433333
4688.18,-0.217346633333
4690.108,-0.217673966667
4692.037,-0.217675566667
4693.965,-0.217349333333
4695.894,-0.216978933333
4697.822,-0.2167438
4699.751,-0.217103866667
4701.679,-0.216926066667
4703.608,-0.2166704
4705.536,-0.216645933333
4707.465,-0.216880033333
4709.394,-0.216729933333
4711.322,-0.2163792
4713.25,-0.216633033333
4715.179,-0.2170756
4717.107,-0.216983266667
4719.036,-0.217153266667
4720.964,-0.216881933333
4722.893,-0.216816933333
4724.821,-0.216536733333
4726.75,-0.216587533333
4728.678,-0.2166899
4730.607,-0.2169665
4732.535,-0.2170381
4734.464,-0.216892066667
4736.392,-0.216753566667
4738.321,-0.217139766667
4740.25,-0.217183866667
4742.178,-0.2168242
4744.106,-0.216429266667
4746.035,-0.216565066667
4747.963,-0.216563233333
4749.892,-0.216284233333
4751.82,-0.2162822
4753.749,-0.216422966667
4755.677,-0.216267366667
4757.606,-0.2165107
4759.534,-0.2161407
4761.463,-0.216037866667
4763.391,-0.216047833333
4765.32,-0.2163157
4767.249,-0.216140866667
4769.177,-0.2161651
4771.105,-0.2161535
4773.034,-0.216187033333
4774.962,-0.216013766667
4776.891,-0.215957766667
4778.819,-0.216164633333
4780.748,-0.216729833333
4782.676,-0.216362533333
4784.605,-0.216158533333
4786.533,-0.2161039
4788.462,-0.215914
4790.39,-0.215539733333
4792.319,-0.2156509
4794.247,-0.215559133333
4796.176,-0.216213933333
4798.104,-0.216099966667
4800.033,-0.215601433333
4801.961,-0.215336133333
4803.89,-0.2153682
4805.818,-0.2156056
4807.747,-0.2158616
4809.675,-0.21581
4811.604,-0.2158089
4813.532,-0.2157107
4815.461,-0.215507533333
4817.389,-0.2154638
4819.318,-0.215698966667
4821.246,-0.2153657
4823.175,-0.215262533333
4825.103,-0.2152826
4827.032,-0.215825766667
4828.96,-0.215805333333
4830.889,-0.2155756
4832.817,-0.2156705
4834.746,-0.2157238
4836.674,-0.215374366667
4838.603,-0.215348033333
4840.531,-0.215157766667
4842.46,-0.214951666667
4844.388,-0.214935533333
4846.317,-0.215444233333
4848.245,-0.2154087
4850.174,-0.2151668
4852.102,-0.214837866667
4854.031,-0.2151231
4855.959,-0.2149033
4857.888,-0.2146177
4859.816,-0.2146982
4861.745,-0.214881
4863.673,-0.214782166667
4865.602,-0.215283366667
4867.53,-0.215266366667
4869.458,-0.214925066667
4871.387,-0.2146674
4873.316,-0.2148705
4875.244,-0.2149735
4877.173,-0.215011466667
4879.101,-0.214915166667
4881.03,-0.215189266667
4882.958,-0.214984166667
4884.887,-0.2149275
4886.815,-0.215003066667
4888.744,-0.2152155
4890.672,-0.214781433333
4892.601,-0.214954533333
4894.529,-0.214778566667
4896.458,-0.214648366667
4898.386,-0.214762233333
4900.315,-0.215031066667
4902.243,-0.214977
4904.172,-0.214834566667
4906.1,-0.214475466667
4908.029,-0.214846666667
4909.957,-0.215079266667
4911.886,-0.2149211
4913.814,-0.214478533333
4915.743,-0.2150924
4917.671,-0.214932566667
4919.6,-0.214611166667
4921.528,-0.214336533333
4923.457,-0.2143727
4925.385,-0.214310833333
4927.313,-0.214311933333
4929.242,-0.214350233333
4931.171,-0.2144235
4933.099,-0.2144027
4935.028,-0.214921366667
4936.956,-0.21478
4938.885,-0.2148496
4940.813,-0.2147253
4942.742,-0.214452833333
4944.67,-0.214188933333
4946.599,-0.2143048
4948.527,-0.2139453
4950.456,-0.213869533333
4952.384,-0.213883166667
4954.313,-0.214397366667
4956.241,-0.2146735
4958.169,-0.214607266667
4960.098,-0.2140754
4962.027,-0.213851566667
4963.955,-0.213450433333
4965.884,-0.2135573
4967.812,-0.213918066667
4969.741,-0.2142185
4971.669,-0.213964833333
4973.598,-0.214272433333
4975.526,-0.213886166667
4977.455,-0.214086066667
4979.383,-0.214423333333
4981.312,-0.214165933333
4983.24,-0.213857566667
4985.168,-0.214012433333
4987.097,-0.213909633333
4989.025,-0.213901433333
4990.954,-0.213687733333
4992.883,-0.213950933333
4994.811,-0.213808233333
4996.74,-0.2139294
4998.668,-0.213796566667
5000.597,-0.2139611
5002.525,-0.2136542
5004.454,-0.213508333333
5006.382,-0.213561866667
5008.311,-0.2135773
5010.239,-0.213512266667
5012.167,-0.213858933333
5014.096,-0.213710866667
5016.024,-0.213747933333
5017.953,-0.213867033333
5019.882,-0.213922266667
5021.81,-0.213755233333
5023.739,-0.213926066667
5025.667,-0.213524133333
5027.596,-0.213402166667
5029.524,-0.213203566667
5031.453,-0.214034033333
5033.381,-0.214421333333
5035.31,-0.214273933333
5037.238,-0.213890233333
5039.167,-0.213745133333
5041.095,-0.2133207
5043.023,-0.213394433333
5044.952,-0.213358666667
5046.88,-0.2132697
5048.809,-0.2130922
5050.738,-0.213488266667
5052.666,-0.2135367
5054.595,-0.213906566667
5056.523,-0.213695866667
5058.452,-0.213661033333
5060.38,-0.213372833333
5062.309,-0.2135632
5064.237,-0.213274366667
5066.166,-0.213374
5068.094,-0.213348133333
5070.022,-0.213594866667
5071.951,-0.213326133333
5073.879,-0.2130688
5075.808,-0.212559933333
5077.736,-0.212816233333
5079.665,-0.213269333333
5081.594,-0.213439933333
5083.522,-0.213010933333
5085.451,-0.2133267
5087.379,-0.213458433333
5089.308,-0.213337933333
5091.236,-0.213224766667
5093.165,-0.2133021
5095.093,-0.212364933333
5097.021,-0.212471533333
5098.95,-0.212664233333
5100.878,-0.2132569
5102.807,-0.212874366667
5104.735,-0.2128171
5106.664,-0.2129262
5108.593,-0.213038166667
5110.521,-0.2125494
5112.45,-0.2124763
5114.378,-0.212606533333
5116.307,-0.213081333333
5118.235,-0.212853733333
5120.164,-0.212795
5122.092,-0.212836566667
5124.021,-0.2127344
5125.949,-0.212396666667
5127.877,-0.212356533333
5129.806,-0.212228266667
5131.734,-0.212454666667
5133.663,-0.212180833333
5135.591,-0.212569666667
5137.52,-0.212635266667
5139.449,-0.2127045
5141.377,-0.212094266667
5143.306,-0.212321366667
5145.234,-0.2124198
5147.163,-0.212744933333
5149.091,-0.212247266667
5151.02,-0.212406666667
5152.948,-0.212477466667
5154.876,-0.212419533333
5156.805,-0.211950833333
5158.733,-0.211988033333
5160.662,-0.2121631
5162.59,-0.212359933333
5164.519,-0.2119821
5166.447,-0.212092866667
5168.376,-0.2118773
5170.305,-0.211802866667
5172.233,-0.211183766667
5174.162,-0.211636233333
5176.09,-0.211939433333
5178.019,-0.212556766667
5179.947,-0.2124665
5181.875,-0.212360966667
5183.804,-0.211751433333
5185.732,-0.2116986
5187.661,-0.211750433333
5189.589,-0.211671766667
5191.518,-0.2114842
5193.446,-0.211922666667
5195.375,-0.2114842
5197.304,-0.210858066667
5199.232,-0.211238166667
5201.161,-0.2120896
5203.089,-0.211936666667
5205.018,-0.210724166667
5206.946,-0.2098304
5208.875,-0.210715733333
5210.803,-0.2112657
5212.731,-0.211916533333
5214.66,-0.211725766667
5216.588,-0.211439966667
5218.517,-0.2111115
5220.445,-0.211517633333
5222.374,-0.211068033333
5224.302,-0.210299933333
5226.231,-0.209804
5228.16,-0.210817133333
5230.088,-0.210577633333
5232.017,-0.210740466667
5233.945,-0.2108625
5235.874,-0.211507966667
5237.802,-0.211455533333
5239.73,-0.211573766667
5241.659,-0.2113771
5243.587,-0.210170966667
5245.516,-0.2094211
5247.444,-0.2097064
5249.373,-0.2100811
5251.301,-0.211139666667
5253.23,-0.210603366667
5255.158,-0.2102545
5257.087,-0.210200433333
5259.016,-0.210691333333
5260.944,-0.2107272
5262.873,-0.2105602
5264.801,-0.2096244
5266.729,-0.2103531
5268.658,-0.2102626
5270.586,-0.210611366667
5272.515,-0.210971666667
5274.443,-0.2112142
5276.372,-0.210570066667
5278.3,-0.210304333333
5280.229,-0.210453433333
5282.157,-0.210774466667
5284.086,-0.209977133333
5286.014,-0.210355766667
5287.943,-0.210580166667
5289.872,-0.209786233333
5291.8,-0.209815933333
5293.729,-0.211043866667
5295.657,-0.2109065
5297.585,-0.210731
5299.514,-0.2102759
5301.442,-0.2107159
5303.371,-0.210492666667
5305.299,-0.210744233333
5307.228,-0.210110833333
5309.156,-0.210173
5311.085,-0.210333366667
5313.013,-0.2102806
5314.942,-0.209451733333
5316.871,-0.209788733333
5318.799,-0.210290766667
5320.728,-0.210275533333
5322.656,-0.2098254
5324.584,-0.210429033333
5326.513,-0.2094959
5328.441,-0.2092357
5330.37,-0.209350666667
5332.298,-0.209471033333
5334.227,-0.2094886
5336.155,-0.208868033333
5338.084,-0.2072169
5340.012,-0.208264466667
5341.941,-0.209217866667
5343.869,-0.2076335
5345.798,-0.207086133333
5347.727,-0.209257833333
5349.655,-0.209652433333
5351.583,-0.208933633333
5353.512,-0.207481266667
5355.44,-0.208529033333
5357.369,-0.209287666667
5359.297,-0.209543433333
5361.226,-0.209159433333
5363.154,-0.2092426
5365.083,-0.209021966667
5367.011,-0.209448866667
5368.94,-0.2095134
5370.868,-0.2098761
5372.797,-0.209379166667
5374.725,-0.208594066667
5376.654,-0.207671133333
5378.583,-0.208709633333
5380.511,-0.209080233333
5382.439,-0.208734466667
5384.368,-0.207826266667
5386.296,-0.207664066667
5388.225,-0.2080739
5390.153,-0.208673733333
5392.082,-0.208212233333
5394.01,-0.208133566667
5395.939,-0.207752866667
5397.867,-0.2073731
5399.796,-0.207768333333
5401.724,-0.208667266667
5403.653,-0.208358033333
5405.582,-0.208937433333
5407.51,-0.2089751
5409.438,-0.207719366667
5411.367,-0.206936333333
5413.295,-0.2072155
5415.224,-0.207501066667
5417.152,-0.208441133333
5419.081,-0.2083431
5421.009,-0.208883533333
5422.938,-0.208839533333
5424.866,-0.208425366667
5426.795,-0.206829133333
5428.723,-0.206279366667
5430.652,-0.207400033333
5432.58,-0.207867133333
5434.509,-0.206323966667
5436.438,-0.207239433333
5438.366,-0.207894766667
5440.294,-0.207213
5442.223,-0.206797466667
5444.151,-0.207185166667
5446.08,-0.206450733333
5448.008,-0.206613233333
5449.937,-0.206620933333
5451.865,-0.207688533333
5453.794,-0.2079846
5455.722,-0.207775233333
5457.651,-0.207541433333
5459.579,-0.207190033333
5461.508,-0.206141833333
5463.436,-0.206937933333
5465.365,-0.206928633333
5467.293,-0.206750866667
5469.222,-0.206347266667
5471.15,-0.207282466667
5473.079,-0.206806033333
5475.007,-0.205786633333
5476.936,-0.2062992
5478.864,-0.207083366667
5480.793,-0.206523
5482.721,-0.207244133333
5484.65,-0.2068553
5486.578,-0.206467266667
5488.507,-0.205554033333
5490.435,-0.205533133333
5492.364,-0.2049511
5494.292,-0.206021433333
5496.221,-0.207154166667
5498.149,-0.2068945
5500.078,-0.206486266667
5502.006,-0.206734333333
5503.935,-0.2065637
5505.863,-0.206566866667
5507.792,-0.2057204
5509.72,-0.2059486
5511.649,-0.205946566667
5513.577,-0.206288633333
5515.506,-0.206018466667
5517.434,-0.2056293
5519.363,-0.205296066667
5521.291,-0.205823533333
5523.22,-0.2059049
5525.148,-0.206374533333
5527.077,-0.206219466667
5529.005,-0.2062037
5530.934,-0.2059851
5532.862,-0.205683433333
5534.791,-0.205037533333
5536.719,-0.205303
5538.648,-0.2048894
5540.576,-0.205204333333
5542.505,-0.205426866667
5544.433,-0.205685966667
5546.362,-0.2050042
5548.29,-0.204838333333
5550.219,-0.204387033333
5552.147,-0.2048023
5554.076,-0.2047179
5556.004,-0.204554966667
5557.933,-0.204540166667
5559.861,-0.204839033333
5561.79,-0.204367666667
5563.718,-0.204316166667
5565.646,-0.204001366667
5567.575,-0.204342733333
5569.504,-0.204606966667
5571.432,-0.2048786
5573.361,-0.2041052
5575.289,-0.204152533333
5577.218,-0.2035106
5579.146,-0.203468866667
5581.075,-0.203412666667
5583.003,-0.203934666667
5584.932,-0.204222766667
5586.86,-0.204654533333
5588.789,-0.2039986
5590.717,-0.2036597
5592.646,-0.203041133333
5594.574,-0.203050933333
5596.502,-0.203056
5598.431,-0.203549133333
5600.36,-0.202561533333
5602.288,-0.202343133333
5604.217,-0.202451566667
5606.145,-0.202677433333
5608.074,-0.202240033333
5610.002,-0.202786433333
5611.931,-0.202849166667
5613.859,-0.203026533333
5615.788,-0.202706833333
5617.716,-0.202900466667
5619.645,-0.2025379
5621.573,-0.202666533333
5623.501,-0.202051566667
5625.43,-0.202206766667
5627.358,-0.2023901
5629.287,-0.202404233333
5631.216,-0.2017259
5633.144,-0.201698833333
5635.073,-0.201819266667
5637.001,-0.202133833333
5638.93,-0.201499766667
5640.858,-0.201566766667
5642.787,-0.201394633333
5644.715,-0.2014972
5646.644,-0.201041066667
5648.572,-0.201370333333
5650.5,-0.2013027
5652.429,-0.201154766667
5654.357,-0.2007608
5656.286,-0.2008748
5658.215,-0.200778733333
5660.143,-0.200829633333
5662.072,-0.200103366667
5664.0,-0.200304133333
5665.929,-0.200441533333
5667.857,-0.200600033333
5669.786,-0.200239066667
5671.714,-0.2002538
5673.643,-0.200227633333
5675.571,-0.200723266667
5677.5,-0.2003222
5679.428,-0.200217333333
5681.356,-0.199430766667
5683.285,-0.1994118
5685.213,-0.199182933333
5687.142,-0.199362033333
5689.071,-0.198851533333
5690.999,-0.1984773
5692.928,-0.197853933333
5694.856,-0.198300433333
5696.785,-0.198317466667
5698.713,-0.198597266667
5700.642,-0.198224233333
5702.57,-0.198192533333
5704.499,-0.1981829
5706.427,-0.1980328
5708.355,-0.1974028
5710.284,-0.1978942
5712.212,-0.197392733333
5714.141,-0.197708733333
5716.069,-0.197469566667
5717.998,-0.197066
5719.927,-0.196267333333
5721.855,-0.1960997
5723.784,-0.195930066667
5725.712,-0.196221433333
5727.641,-0.1960474
5729.569,-0.196387033333
5731.498,-0.196440133333
5733.426,-0.1966161
5735.354,-0.195930333333
5737.283,-0.1955331
5739.211,-0.194558366667
5741.14,-0.194186833333
5743.068,-0.1940882
5744.997,-0.195060266667
5746.926,-0.194841466667
5748.854,-0.194452533333
5750.783,-0.193902366667
5752.711,-0.1945618
5754.64,-0.1942819
5756.568,-0.1939704
5758.497,-0.193700966667
5760.425,-0.194509366667
5762.354,-0.193849466667
5764.282,-0.193434966667
5766.21,-0.193479666667
5768.139,-0.193798966667
5770.067,-0.1930484
5771.996,-0.193447433333
5773.924,-0.192915133333
5775.853,-0.192638266667
5777.782,-0.192430433333
5779.71,-0.192560366667
5781.639,-0.1921171
5783.567,-0.1919878
5785.496,-0.191815733333
5787.424,-0.1919156
5789.353,-0.1912347
5791.281,-0.190749766667
5793.209,-0.190291366667
5795.138,-0.191329466667
5797.066,-0.191250966667
5798.995,-0.191273733333
5800.923,-0.190637733333
5802.852,-0.190415433333
5804.78,-0.190110333333
5806.709,-0.190416933333
5808.638,-0.190064566667
5810.566,-0.190012366667
5812.495,-0.189327333333
5814.423,-0.189062833333
5816.352,-0.188641833333
5818.28,-0.1889109
5820.208,-0.1891832
5822.137,-0.189206166667
5824.065,-0.1882756
5825.994,-0.187720433333
5827.922,-0.1873067
5829.851,-0.188031833333
5831.779,-0.1875554
5833.708,-0.187806833333
5835.637,-0.187541933333
5837.565,-0.187485766667
5839.494,-0.1868824
5841.422,-0.186756733333
5843.351,-0.186432866667
5845.279,-0.186684033333
5847.208,-0.186255
5849.136,-0.186123066667
5851.064,-0.185607333333
5852.993,-0.1857742
5854.921,-0.1851962
5856.85,-0.185328733333
5858.778,-0.184271833333
5860.707,-0.184022733333
5862.635,-0.184392266667
5864.564,-0.184926
5866.493,-0.184485833333
5868.421,-0.1846699
5870.35,-0.183932
5872.278,-0.1832021
5874.207,-0.1827616
5876.135,-0.183287966667
5878.063,-0.1828326
5879.992,-0.182345966667
5881.92,-0.182153633333
5883.849,-0.1820387
5885.777,-0.181041533333
5887.706,-0.180671666667
5889.634,-0.1805252
5891.563,-0.1810621
5893.491,-0.181047633333
5895.42,-0.180938633333
5897.349,-0.179650633333
5899.277,-0.180319766667
5901.206,-0.180349933333
5903.134,-0.1802884
5905.063,-0.179267666667
5906.991,-0.178563533333
5908.919,-0.178267366667
5910.848,-0.1785996
5912.776,-0.178308633333
5914.705,-0.178162333333
5916.633,-0.177767766667
5918.562,-0.177671866667
5920.49,-0.176853233333
5922.419,-0.1767915
5924.347,-0.175687066667
5926.276,-0.1756306
5928.205,-0.1754663
5930.133,-0.175631633333
5932.062,-0.1753079
5933.99,-0.175471866667
5935.918,-0.175388833333
5937.847,-0.175763766667
5939.775,-0.174409686667
5941.704,-0.173774823333
5943.632,-0.17293781
5945.561,-0.172443156667
5947.489,-0.172416896667
5949.418,-0.17327883
5951.346,-0.172723276667
5953.275,-0.172472493333
5955.204,-0.171686373333
5957.132,-0.17177244
5959.061,-0.171171476667
5960.989,-0.17086511
5962.917,-0.170128633333
5964.846,-0.170048203333
5966.774,-0.169267556667
5968.703,-0.16943521
5970.631,-0.169484386667
5972.56,-0.169543356667
5974.488,-0.168530633333
5976.417,-0.168368736667
5978.345,-0.168065603333
5980.274,-0.16835005
5982.202,-0.167605593333
5984.131,-0.167483116667
5986.06,-0.167144386667
5987.988,-0.16746139
5989.917,-0.166568823333
5991.845,-0.166034523333
5993.773,-0.164620403333
5995.702,-0.164476146667
5997.63,-0.164815563333
5999.559,-0.165417766667
6001.487,-0.164571423333
6003.416,-0.16375585
6005.344,-0.16314716
6007.273,-0.16360475
6009.201,-0.162937056667
6011.13,-0.1626899
6013.058,-0.162086246667
6014.987,-0.16209476
6016.916,-0.1613058
6018.844,-0.16077559
6020.772,-0.15976372
6022.701,-0.1597487
6024.629,-0.159249983333
6026.558,-0.15946892
6028.486,-0.15921185
6030.415,-0.159204616667
6032.343,-0.157684183333
6034.272,-0.156893326667
6036.2,-0.156545863333
6038.129,-0.156464646667
6040.057,-0.156007826667
6041.986,-0.155946776667
6043.915,-0.155463176667
6045.843,-0.156003096667
6047.771,-0.155335943333
6049.7,-0.155090096667
6051.628,-0.153881723333
6053.557,-0.15369028
6055.485,-0.152803456667
6057.414,-0.152371736667
6059.342,-0.151200476667
6061.271,-0.151404783333
6063.199,-0.15105769
6065.128,-0.151005476667
6067.056,-0.149990823333
6068.985,-0.149700103333
6070.913,-0.14959952
6072.842,-0.149503093333
6074.771,-0.148366316667
6076.699,-0.149081023333
6078.627,-0.148691013333
6080.556,-0.147403103333
6082.484,-0.145482436667
6084.413,-0.145805816667
6086.341,-0.14529255
6088.27,-0.144814046667
6090.198,-0.14422641
6092.127,-0.14447511
6094.055,-0.14386681
6095.984,-0.143441943333
6097.912,-0.143027586667
6099.841,-0.142606436667
6101.769,-0.14070666
6103.698,-0.140551456667
6105.626,-0.140498166667
6107.555,-0.140280343333
6109.483,-0.138880093333
6111.412,-0.138393486667
6113.34,-0.138398823333
6115.269,-0.138903706667
6117.197,-0.137726326667
6119.126,-0.13772604
6121.054,-0.13656816
6122.983,-0.13585472
6124.911,-0.135206746667
6126.84,-0.13503916
6128.768,-0.133975
6130.697,-0.133517083333
6132.625,-0.132905746667
6134.554,-0.13295904
6136.482,-0.13154675
6138.411,-0.131812253333
6140.339,-0.131502903333
6142.268,-0.13078984
6144.196,-0.12952512
6146.125,-0.129265076667
6148.053,-0.1288335
6149.982,-0.12848107
6151.91,-0.12698528
6153.839,-0.126828606667
6155.767,-0.126247043333
6157.696,-0.126109903333
6159.624,-0.12449742
6161.553,-0.12442957
6163.481,-0.123919396667
6165.41,-0.123178746667
6167.338,-0.122514123333
6169.267,-0.121838823333
6171.195,-0.1203872
6173.124,-0.120525496667
6175.052,-0.11998353
6176.981,-0.120140976667
6178.909,-0.11916417
6180.838,-0.118559306667
6182.766,-0.117377346667
6184.695,-0.117635053333
6186.623,-0.116709736667
6188.552,-0.11652299
6190.48,-0.115716783333
6192.409,-0.1150256
6194.337,-0.11400183
6196.266,-0.11418658
6198.194,-0.113203403333
6200.123,-0.11232753
6202.051,-0.11036316
6203.979,-0.10986497
6205.908,-0.10927658
6207.837,-0.109220346667
6209.765,-0.108622223333
6211.694,-0.108643686667
6213.622,-0.10741981
6215.551,-0.107286956667
6217.479,-0.105946556667
6219.408,-0.104693536667
6221.336,-0.104007866667
6223.265,-0.103856573333
6225.193,-0.10326327
6227.122,-0.10208572
6229.05,-0.100892313333
6230.979,-0.101264446667
6232.907,-0.0993808366667
6234.835,-0.09814283
6236.764,-0.0978391433333
6238.693,-0.0973258166667
6240.621,-0.09564736
6242.55,-0.09598943
6244.478,-0.0952587566667
6246.407,-0.0946535
6248.335,-0.0939578466667
6250.264,-0.0933145766667
6252.192,-0.09249726
6254.121,-0.0916923233333
6256.049,-0.0899693233333
6257.978,-0.08972759
6259.906,-0.08879129
6261.834,-0.0883142033333
6263.763,-0.08703816
6265.691,-0.0868341533333
6267.62,-0.0855893133333
6269.549,-0.0853712933333
6271.477,-0.0846269733333
6273.406,-0.0831468036667
6275.334,-0.081617418
6277.263,-0.0813361543333
6279.191,-0.0799245973333
6281.12,-0.0793279923333
6283.048,-0.0787262546667
6284.977,-0.0785558733333
6286.905,-0.076936565
6288.833,-0.0750619039
6290.762,-0.0747143904667
6292.69,-0.075579652
6294.619,-0.0736783521333
6296.548,-0.0725526786667
6298.476,-0.0710615683333
6300.405,-0.0705320873333
6302.333,-0.0696522646667
6304.262,-0.0683496853333
6306.19,-0.0671786353333
6308.119,-0.0667771153333
6310.047,-0.0653000483333
6311.976,-0.0648842433333
6313.904,-0.06363615
6315.833,-0.0631559066667
6317.761,-0.0616733566667
6319.689,-0.0609882366667
6321.618,-0.05990927
6323.546,-0.05984756
6325.475,-0.0584940466667
6327.404,-0.0577445166667
6329.332,-0.0565694566667
6331.261,-0.0562543433333
6333.189,-0.0548094033333
6335.118,-0.0544657766667
6337.046,-0.0527668633333
6338.975,-0.0515467066667
6340.903,-0.0497117566667
6342.832,-0.0495262266667
6344.76,-0.0496245366667
6346.688,-0.04891714
6348.617,-0.04626444
6350.545,-0.0451206433333
6352.474,-0.0435365366667
6354.402,-0.04327928
6356.331,-0.0419398066667
6358.26,-0.0404177766667
6360.188,-0.0395129
6362.117,-0.0396905666667
6364.045,-0.0379703566667
6365.974,-0.0367878466667
6367.902,-0.0354147466667
6369.831,-0.0350599733333
6371.759,-0.0334153066667
6373.688,-0.0322313166667
6375.616,-0.0307342666667
6377.544,-0.02998979
6379.473,-0.0289030733333
6381.401,-0.0280695166667
6383.33,-0.0264552066667
6385.259,-0.0263681466667
6387.187,-0.0254906233333
6389.116,-0.0245025466667
6391.044,-0.02188362
6392.973,-0.0210329766667
6394.901,-0.01991506
6396.83,-0.01954825
6398.758,-0.0176165166667
6400.687,-0.016774441
6402.615,-0.0153506056667
6404.543,-0.0144977073333
6406.472,-0.013777272
6408.4,-0.0135270613333
6410.329,-0.0109254963333
6412.257,-0.009599675
6414.186,-0.00774062106667
6416.115,-0.00676239866667
6418.043,-0.00474655933333
6419.972,-0.00447031233333
6421.9,-0.003327708
6423.829,-0.001745565
6425.757,-0.000419150333333
6427.686,-0.000420147333333
6429.614,0.00175471066667
6431.542,0.00166092133333
6433.471,0.00268741666667
6435.399,0.00482046
6437.328,0.00726777666667
6439.256,0.00838105666667
6441.185,0.00965538
6443.113,0.01042103
6445.042,0.0122903333333
6446.971,0.0129872766667
6448.899,0.0134006433333
6450.828,0.0145937333333
6452.756,0.0182309033333
6454.685,0.01968309
6456.613,0.02193742
6458.542,0.02254166
6460.47,0.0235631833333
6462.398,0.0235283733333
6464.327,0.0249440133333
6466.255,0.02599218
6468.184,0.0277514833333
6470.112,0.0293045266667
6472.041,0.03110235
6473.97,0.0316402966667
6475.898,0.03433277
6477.827,0.03578923
6479.755,0.03688189
6481.684,0.0379794066667
6483.612,0.04003241
6485.541,0.0414119833333
6487.469,0.0427231733333
6489.397,0.04332752
6491.326,0.04568101
6493.254,0.0467504366667
6495.183,0.0499610433333
6497.111,0.05089924
6499.04,0.0518276433333
6500.968,0.0523641066667
6502.897,0.0546422966667
6504.826,0.0559115733333
6506.754,0.05787396
6508.683,0.0591689533333
6510.611,0.0611884533333
6512.54,0.0622018466667
6514.468,0.06347669
6516.396,0.0646329033333
6518.325,0.0669431
6520.253,0.0669011866667
6522.182,0.0683952933333
6524.11,0.0705128033333
6526.039,0.072844086
6527.967,0.0731803086667
6529.896,0.0754679266667
6531.824,0.0763506346667
6533.753,0.0788153316667
6535.682,0.080168519
6537.61,0.082400273
6539.539,0.0836420663333
6541.467,0.085885006
6543.396,0.086957936
6545.324,0.0891453866667
6547.252,0.0902480403333
6549.181,0.0920841966667
6551.109,0.0940073366667
6553.038,0.09559743
6554.966,0.0955927633333
6556.895,0.0980919766667
6558.823,0.0994143633333
6560.752,0.100386776667
6562.68,0.10210373
6564.609,0.10512254
6566.538,0.1071626
6568.466,0.10948384
6570.395,0.11015908
6572.323,0.111589116667
6574.251,0.11221779
6576.18,0.114381036667
6578.108,0.11721237
6580.037,0.120454216667
6581.965,0.12046825
6583.894,0.122272873333
6585.822,0.123636656667
6587.751,0.125671216667
6589.679,0.126808163333
6591.608,0.12972585
6593.537,0.13244125
6595.465,0.134422346667
6597.394,0.134235046667
6599.322,0.137535306667
6601.25,0.139715623333
6603.179,0.141988073333
6605.107,0.143079646667
6607.036,0.144188843333
6608.964,0.144483336667
6610.893,0.146055663333
6612.821,0.147304653333
6614.75,0.150522796667
6616.678,0.152661396667
6618.607,0.15606798
6620.535,0.157254606667
6622.464,0.159578363333
6624.393,0.161521436667
6626.321,0.163585046667
6628.25,0.165072763333
6630.178,0.168216746667
6632.106,0.169905203333
6634.035,0.17198713
6635.963,0.17267715
6637.892,0.175168113333
6639.82,0.17704224
6641.749,0.180180366667
6643.677,0.18102517
6645.606,0.183167166667
6647.534,0.184472766667
6649.463,0.185848333333
6651.391,0.1877223
6653.32,0.191649633333
6655.249,0.1938094
6657.177,0.196284866667
6659.105,0.195687833333
6661.034,0.1976043
6662.962,0.201030833333
6664.891,0.204170566667
6666.819,0.206538866667
6668.748,0.209951466667
6670.676,0.210769933333
6672.605,0.2114565
6674.533,0.212573266667
6676.462,0.216658133333
6678.39,0.2174568
6680.319,0.2198102
6682.248,0.2217765
6684.176,0.2235471
6686.104,0.223717133333
6688.033,0.227834033333
6689.961,0.231045133333
6691.89,0.233611933333
6693.818,0.235313666667
6695.747,0.238384566667
6697.675,0.2407016
6699.604,0.244195266667
6701.532,0.2458387
6703.461,0.248247533333
6705.389,0.2487425
6707.318,0.250805066667
6709.246,0.2527337
6711.175,0.2561284
6713.104,0.256878666667
6715.032,0.258317266667
6716.96,0.259702266667
6718.889,0.262424266667
6720.817,0.263516233333
6722.746,0.268220566667
6724.674,0.272303366667
6726.603,0.274703233333
6728.531,0.2745437
6730.46,0.276651966667
6732.388,0.278138533333
6734.317,0.280817166667
6736.245,0.283289566667
6738.174,0.2878792
6740.102,0.2894255
6742.031,0.291328133333
6743.959,0.294695833333
6745.888,0.2974197
6747.816,0.2969661
6749.745,0.299470833333
6751.673,0.302579866667
6753.602,0.3065466
6755.53,0.3066152
6757.459,0.309677833333
6759.387,0.311865866667
6761.316,0.314543766667
6763.244,0.316213
6765.173,0.320024366667
6767.101,0.323400866667
6769.03,0.3252401
6770.958,0.326109033333
6772.887,0.3295128
6774.815,0.3323377
6776.744,0.337061333333
6778.672,0.3392347
6780.601,0.341595433333
6782.529,0.343526466667
6784.458,0.347591333333
6786.386,0.349481733333
6788.315,0.3517133
6790.243,0.353393233333
6792.172,0.355513633333
6794.1,0.356082733333
6796.029,0.360502133333
6797.957,0.362764266667
6799.886,0.365084133333
6801.814,0.365795366667
6803.743,0.368905966667
6805.671,0.372113433333
6807.6,0.3739885
6809.528,0.375333266667
6811.457,0.3815863
6813.385,0.383909366667
6815.313,0.384793066667
6817.242,0.385053833333
6819.171,0.390077533333
6821.099,0.394892366667
6823.028,0.397628666667
6824.956,0.397507333333
6826.885,0.401487766667
6828.813,0.404769433333
6830.742,0.407094566667
6832.67,0.4081972
6834.599,0.4127462
6836.527,0.415978266667
6838.456,0.4195014
6840.384,0.4202531
6842.313,0.423697
6844.241,0.425540466667
6846.17,0.4293166
6848.098,0.431058933333
6850.027,0.434805966667
6851.955,0.435993066667
6853.884,0.439195133333
6855.812,0.442491966667
6857.741,0.444881566667
6859.669,0.446633733333
6861.598,0.451411033333
6863.526,0.454350133333
6865.455,0.456890466667
6867.383,0.457032
6869.312,0.459971733333
6871.24,0.465263633333
6873.168,0.468558933333
6875.097,0.467474266667
6877.026,0.4691956
6878.954,0.4734508
6880.883,0.479930766667
6882.811,0.4828088
6884.74,0.486545733333
6886.668,0.4874741
6888.597,0.4897326
6890.525,0.4923292
6892.454,0.497239733333
6894.382,0.5008454
6896.311,0.505284933333
6898.239,0.506066466667
6900.167,0.5072462
6902.096,0.5087945
6904.024,0.514303466667
6905.953,0.519199866667
6907.882,0.5234744
6909.81,0.521862366667
6911.739,0.521573666667
6913.667,0.525382866667
6915.596,0.531168466667
6917.524,0.533605366667
6919.453,0.5374625
6921.381,0.5397181
6923.31,0.543463866667
6925.238,0.547079933333
6927.167,0.548576333333
6929.095,0.549366266667
6931.023,0.5534641
6932.952,0.556578866667
6934.881,0.562668833333
6936.809,0.566262566667
6938.738,0.5675732
6940.666,0.565847933333
6942.595,0.5696129
6944.523,0.5727091
6946.452,0.575189633333
6948.38,0.578433066667
6950.309,0.585332266667
6952.237,0.589465133333
6954.166,0.5932578
6956.094,0.594531033333
6958.022,0.598069566667
6959.951,0.6020462
6961.879,0.606846133333
6963.808,0.606835633333
6965.737,0.6087444
6967.665,0.612654966667
6969.594,0.6187787
6971.522,0.6211074
6973.451,0.623566033333
6975.379,0.6231256
6977.308,0.6277097
6979.236,0.629595033333
6981.165,0.6291723
6983.093,0.6313005
6985.021,0.635899766667
6986.95,0.638343
6988.878,0.6398479
6990.807,0.6470016
6992.735,0.657997266667
6994.664,0.657898166667
6996.593,0.661043533333
6998.521,0.6646458
7000.45,0.666069233333
7002.378,0.6657977
7004.307,0.669897766667
7006.235,0.672202833333
7008.164,0.6739876
7010.092,0.675367933333
7012.021,0.682315433333
7013.949,0.686526066667
7015.877,0.691632833333
7017.806,0.6947383
7019.734,0.7028656
7021.663,0.702134133333
7023.592,0.7021914
7025.52,0.7049752
7027.449,0.714226966667
7029.377,0.722461266667
7031.306,0.7220638
7033.234,0.719165633333
7035.163,0.7254528
7037.091,0.7304713
7039.02,0.730001866667
7040.948,0.727007233333
7042.876,0.733027033333
7044.805,0.740726133333
7046.733,0.740053233333
7048.662,0.741637566667
7050.59,0.746414933333
7052.519,0.7487072
7054.448,0.7558292
7056.376,0.763320866667
7058.305,0.7666889
7060.233,0.765009166667
7062.162,0.767135533333
7064.09,0.771170033333
7066.019,0.777268866667
7067.947,0.7769306
7069.875,0.780721233333
7071.804,0.787742866667
7073.732,0.790658866667
7075.661,0.7880991
7077.589,0.791884033333
7079.518,0.794869366667
7081.446,0.800670633333
7083.375,0.800961033333
7085.304,0.804063033333
7087.232,0.805444066667
7089.161,0.810603033333
7091.089,0.821210166667
7093.018,0.827077
7094.946,0.826777966667
7096.875,0.8341296
7098.803,0.8335921
7100.731,0.831885233333
7102.66,0.830797366667
7104.588,0.8393147
7106.517,0.847487433333
7108.445,0.849566333333
7110.374,0.845297466667
7112.302,0.848733433333
7114.231,0.852538366667
7116.16,0.853784133333
7118.088,0.861632666667
7120.017,0.8695371
7121.945,0.870205166667
7123.874,0.877902766667
7125.802,0.881441133333
7127.73,0.884479633333
7129.659,0.886067833333
7131.587,0.890129
7133.516,0.890879866667
7135.444,0.8982805
7137.373,0.899663733333
7139.301,0.8967343
7141.23,0.896710166667
7143.159,0.897948533333
7145.087,0.913136833333
7147.016,0.922356066667
7148.944,0.9144885
7150.873,0.916845566667
7152.801,0.9209117
7154.729,0.922934733333
7156.658,0.9116388
7158.586,0.9182708
7160.515,0.924452333333
7162.443,0.9196223
7164.372,0.9338815
7166.3,0.940577
7168.229,0.938979033333
7170.157,0.942580866667
7172.086,0.951536
7174.015,0.954693466667
7175.943,0.9550375
7177.872,0.966375633333
7179.8,0.963673733333
7181.729,0.957135933333
7183.657,0.9733441
7185.585,0.996451066667
7187.514,0.994525266667
7189.442,0.984940766667
7191.371,0.988074666667
7193.299,0.9982399
7195.228,0.9952729
7197.156,0.996994266667
7199.085,1.0065415
7201.013,1.0140156
7202.942,1.00526183333
7204.871,0.995474366667
7206.799,1.00140403333
7208.728,1.0129186
7210.656,1.01382726667
7212.584,1.0179661
7214.513,1.01081333333
7216.441,1.0147292
7218.37,1.0338947
7220.298,1.04062613333
7222.227,1.02636936667
7224.155,1.02617373333
7226.084,1.0407231
7228.012,1.04607096667
7229.941,1.03470113333
7231.87,1.01658426667
7233.798,1.0369783
7235.727,1.0626323
7237.655,1.06690633333
7239.583,1.0642089
7241.512,1.05923126667
7243.44,1.06305013333
7245.369,1.05664163333
7247.297,1.0640292
7249.226,1.07047986667
7251.154,1.0699213
7253.083,1.0796721
7255.011,1.10024486667
7256.94,1.109254
7258.868,1.12443766667
7260.797,1.132332
7262.726,1.10949996667
7264.654,1.10517396667
7266.583,1.10864876667
7268.511,1.10302596667
7270.439,1.0949271
7272.368,1.09522466667
7274.296,1.10810136667
7276.225,1.09491663333
7278.153,1.07848016667
7280.082,1.099922
7282.01,1.11916733333
7283.939,1.110131
7285.867,1.124796
7287.796,1.11652733333
7289.724,1.11072533333
7291.653,1.12501866667
7293.582,1.13972566667
7295.51,1.146714
7297.438,1.15616866667
7299.367,1.173468
7301.295,1.19184666667
7303.224,1.16887766667
7305.152,1.13129233333
7307.081,1.12568966667
7309.009,1.13224033333
7310.938,1.13175033333
7312.866,1.14945266667
7314.795,1.17707133333
7316.723,1.176108
7318.652,1.14709366667
7320.581,1.14451833333
7322.509,1.15057066667
7324.438,1.158748
7326.366,1.15707033333
7328.294,1.15813766667
7330.223,1.17473966667
7332.151,1.19271866667
7334.08,1.18392833333
7336.008,1.17949666667
7337.937,1.19327133333
7339.865,1.21827133333
7341.794,1.22132833333
7343.722,1.171905
7345.651,1.17334666667
7347.579,1.20064366667
7349.508,1.224917
7351.437,1.25697766667
7353.365,1.23855
7355.293,1.207454
7357.222,1.22671733333
7359.15,1.251354
7361.079,1.220714
7363.007,1.215351
7364.936,1.21638066667
7366.864,1.22639133333
7368.793,1.23274366667
7370.721,1.21414966667
7372.65,1.20283266667
7374.578,1.21327533333
7376.507,1.25081233333
7378.435,1.24393933333
7380.364,1.25657866667
7382.292,1.26242466667
7384.221,1.24259
7386.149,1.229612
7388.078,1.23987733333
7390.006,1.22742833333
7391.935,1.22747033333
7393.863,1.24807433333
7395.792,1.213372
7397.72,1.22804833333
7399.649,1.29089633333
7401.577,1.30180133333
7403.506,1.28923966667
7405.434,1.264501
7407.363,1.28021533333
7409.291,1.30158966667
7411.22,1.289446
7413.148,1.26503166667
7415.077,1.23959666667
7417.005,1.26699966667
7418.934,1.31693433333
7420.862,1.32102
7422.791,1.35583666667
7424.719,1.33675133333
7426.648,1.264256
7428.576,1.25350366667
7430.505,1.27004766667
7432.433,1.26356866667
7434.362,1.24813833333
7436.29,1.25058233333
7438.219,1.26094233333
7440.147,1.27452566667
7442.076,1.294476
7444.004,1.30952633333
7445.933,1.29529766667
7447.861,1.31318233333
7449.79,1.370224
7451.718,1.348229
7453.646,1.29944866667
7455.575,1.28941466667
7457.504,1.304199
7459.432,1.292554
7461.361,1.285556
7463.289,1.29618266667
7465.218,1.32347033333
7467.146,1.32834633333
7469.075,1.33161166667
7471.003,1.308209
7472.932,1.32494233333
7474.86,1.32215833333
7476.789,1.29161233333
7478.717,1.27236266667
7480.646,1.274031
7482.574,1.29754833333
7484.503,1.33231066667
7486.431,1.386593
7488.36,1.45352333333
7490.288,1.393574
7492.217,1.32784866667
7494.145,1.28547666667
7496.074,1.29400266667
7498.002,1.38803833333
7499.931,1.42868133333
7501.859,1.385278
7503.788,1.36444233333
7505.716,1.34956966667
7507.645,1.30916466667
7509.573,1.30143866667
7511.501,1.27922633333
7513.43,1.25004666667
7515.359,1.21808866667
7517.287,1.25329733333
7519.216,1.316955
7521.144,1.277912
7523.073,1.27176033333
7525.001,1.262742
7526.93,1.229524
7528.858,1.26300366667
7530.787,1.33949433333
7532.715,1.35936
7534.644,1.340872
7536.572,1.30289366667
7538.5,1.34118833333
7540.429,1.36145466667
7542.357,1.273492
7544.286,1.26406633333
7546.215,1.28427366667
7548.143,1.28092033333
7550.072,1.27548866667
7552.0,1.27481333333
7553.929,1.262381
7555.857,1.28116133333
7557.786,1.31017133333
7559.714,1.29773866667
7561.643,1.249795
7563.571,1.26364633333
7565.5,1.261064
7567.428,1.262765
7569.356,1.29689433333
7571.285,1.31697433333
7573.214,1.27582333333
7575.142,1.24604333333
7577.071,1.26329433333
7578.999,1.285135
7580.928,1.24638933333
7582.856,1.258663
7584.785,1.32494133333
7586.713,1.315443
7588.642,1.25893066667
7590.57,1.28332666667
7592.499,1.34757866667
7594.427,1.37926366667
7596.355,1.330709
7598.284,1.29127033333
7600.212,1.345016
7602.141,1.410729
7604.07,1.386258
7605.998,1.324515
7607.927,1.35080233333
7609.855,1.37995033333
7611.784,1.36934866667
7613.712,1.39488433333
7615.641,1.34186866667
7617.569,1.26597933333
7619.498,1.225816
7621.426,1.219526
7623.354,1.244137
7625.283,1.27431166667
7627.211,1.25692566667
7629.14,1.27513033333
7631.068,1.32658166667
7632.997,1.35260966667
7634.926,1.28740666667
7636.854,1.287616
7638.783,1.306775
7640.711,1.319895
7642.64,1.332347
7644.568,1.29062533333
7646.497,1.23450866667
7648.425,1.23265833333
7650.354,1.238463
7652.282,1.25139033333
7654.21,1.26751333333
7656.139,1.25158666667
7658.067,1.227344
7659.996,1.196252
7661.925,1.23292766667
7663.853,1.23924866667
7665.782,1.17384166667
7667.71,1.197076
7669.639,1.22402833333
7671.567,1.219619
7673.496,1.268461
7675.424,1.30814433333
7677.353,1.23653966667
7679.281,1.21704433333
7681.209,1.21402033333
7683.138,1.21724766667
7685.066,1.21646066667
7686.995,1.25044433333
7688.923,1.26723633333
7690.852,1.21991066667
7692.781,1.21902733333
7694.709,1.25170366667
7696.638,1.20454133333
7698.566,1.21030566667
7700.495,1.22518933333
7702.423,1.270819
7704.352,1.32988366667
7706.28,1.34865333333
7708.208,1.38801933333
7710.137,1.36998933333
7712.065,1.307296
7713.994,1.278172
7715.922,1.246381
7717.851,1.213465
7719.779,1.22433433333
7721.708,1.2235
7723.637,1.225545
7725.565,1.21880166667
7727.494,1.25017666667
7729.422,1.277226
7731.351,1.22909233333
7733.279,1.16739133333
7735.208,1.15076833333
7737.136,1.17521533333
7739.064,1.20881233333
7740.993,1.23819033333
7742.921,1.22453066667
7744.85,1.22704633333
7746.778,1.24388866667
7748.707,1.18277733333
7750.635,1.14497933333
7752.564,1.17030566667
7754.493,1.23110566667
7756.421,1.29415366667
7758.35,1.237277
7760.278,1.20519066667
7762.207,1.17981666667
7764.135,1.162398
7766.063,1.16499133333
7767.992,1.18726266667
7769.92,1.20521566667
7771.849,1.18029766667
7773.777,1.12108446667
7775.706,1.149009
7777.634,1.18364666667
7779.563,1.188512
7781.492,1.208919
7783.42,1.14997533333
7785.349,1.11778266667
7787.277,1.151328
7789.206,1.1599275
7791.134,1.16835233333
7793.063,1.169601
7794.991,1.15646983333
7796.919,1.13345733333
7798.848,1.14751266667
7800.776,1.15063533333
7802.705,1.12227033333
7804.633,1.10522366667
7806.562,1.094277
7808.49,1.09349966667
7810.419,1.0989387
7812.348,1.1049745
7814.276,1.09227233333
7816.205,1.08026123333
7818.133,1.0793192
7820.062,1.0743437
7821.99,1.0694732
7823.918,1.10602133333
7825.847,1.1291447
7827.775,1.11360446667
7829.704,1.10806896667
7831.632,1.12042033333
7833.561,1.17238733333
7835.489,1.13593866667
7837.418,1.1076969
7839.346,1.08425633333
7841.275,1.06598306667
7843.204,1.086638
7845.132,1.13371276667
7847.061,1.11168666667
7848.989,1.10333053333
7850.917,1.11175656667
7852.846,1.06941356667
7854.774,1.06211573333
7856.703,1.05026786667
7858.631,1.03733656667
7860.56,1.03963196667
7862.488,1.07755703333
7864.417,1.14595423333
7866.345,1.07871426667
7868.274,1.03403583333
7870.203,1.008312
7872.131,0.9966327
7874.06,0.982287366667
7875.988,0.997863666667
7877.917,1.00123446667
7879.845,1.01486423333
7881.773,1.0651391
7883.702,1.08814336667
7885.63,1.09292456667
7887.559,1.0832987
7889.487,1.03350086667
7891.416,1.03540406667
7893.344,1.04887436667
7895.273,1.01590286667
7897.201,1.0162374
7899.13,1.02332116667
7901.059,0.9843894
7902.987,1.04750536667
7904.916,1.05976676667
7906.844,1.04567593333
7908.772,1.09085863333
7910.701,1.09143656667
7912.629,1.03777666667
7914.558,1.0400505
7916.486,1.0511142
7918.415,1.03237886667
7920.343,1.042101
7922.272,0.9904381
7924.2,0.951527133333
7926.129,0.963695766667
7928.057,0.982904933333
7929.986,1.01646786667
7931.915,1.0520163
7933.843,1.02362153333
7935.771,0.994723733333
7937.7,1.00406206667
7939.628,0.970878166667
7941.557,0.9552617
7943.485,0.9647313
7945.414,0.9499601
7947.342,0.9398189
7949.271,1.00208726667
7951.199,1.02266573333
7953.128,0.997294633333
7955.056,1.00205453333
7956.985,1.0060084
7958.914,0.996446766667
7960.842,0.985139733333
7962.771,1.0048302
7964.699,1.0242626
7966.627,0.967017366667
7968.556,0.9617986
7970.484,0.995100166667
7972.413,1.0718821
7974.341,1.05027753333
7976.27,1.01999953333
7978.198,0.9658268
7980.127,0.929011666667
7982.055,0.910522633333
7983.984,0.964384766667
7985.912,1.01875843333
7987.841,0.9665392
7989.77,0.927726866667
7991.698,0.929294233333
7993.626,0.919335333333
7995.555,0.937560766667
7997.483,0.92684
7999.412,0.924412633333
8001.34,0.922147833333
8003.269,0.955804266667
8005.197,0.9223498
8007.126,0.893773233333
8009.054,0.936222166667
8010.983,0.956857033333
8012.911,0.88887
8014.84,0.8704996
8016.768,0.9059307
8018.697,0.918481233333
8020.625,0.9190722
8022.554,0.9418273
8024.482,0.8993441
8026.411,0.831313766667
8028.339,0.8569708
8030.268,0.906884433333
8032.196,0.861239266667
8034.125,0.824207133333
8036.053,0.8258398
8037.982,0.8732089
8039.91,0.878311433333
8041.839,0.876468566667
8043.767,0.870685066667
8045.696,0.868350633333
8047.624,0.887827133333
8049.553,0.9244964
8051.481,0.955038533333
8053.41,0.907545333333
8055.338,0.879743833333
8057.267,0.8659498
8059.195,0.8631473
8061.124,0.905397133333
8063.052,0.876617233333
8064.981,0.862730166667
8066.909,0.874399833333
8068.838,0.901960466667
8070.766,0.923678866667
8072.695,0.879205533333
8074.623,0.871732333333
8076.552,0.874640833333
8078.48,0.844555533333
8080.409,0.8128701
8082.337,0.8438044
8084.266,0.8500026
8086.194,0.807604333333
8088.123,0.888493466667
8090.051,0.9521169
8091.979,0.898972833333
8093.908,0.842749066667
8095.837,0.812395133333
8097.765,0.794581166667
8099.694,0.751929833333
8101.622,0.778696166667
8103.551,0.826244366667
8105.479,0.810724033333
8107.408,0.8320403
8109.336,0.8319767
8111.265,0.7934625
8113.193,0.8092087
8115.122,0.807307766667
8117.05,0.7377514
8118.979,0.7386421
8120.907,0.757448566667
8122.836,0.7954161
8124.764,0.804171433333
8126.693,0.768093033333
8128.621,0.738073166667
8130.55,0.7666967
8132.478,0.7632491
8134.407,0.790873733333
8136.335,0.813912733333
8138.264,0.839916
8140.192,0.8327862
8142.121,0.800501033333
8144.049,0.783115366667
8145.978,0.7710894
8147.906,0.7662347
8149.834,0.755548966667
8151.763,0.758032266667
8153.692,0.7800057
8155.62,0.767579166667
8157.549,0.775126033333
8159.477,0.8238187
8161.406,0.927840666667
8163.334,0.8357101
8165.263,0.8900238
8167.191,0.877156266667
8169.12,0.783846433333
8171.048,0.759193433333
8172.977,0.737391766667
8174.905,0.7737706
8176.833,0.809323633333
8178.762,0.775547
8180.69,0.760468966667
8182.619,0.7205041
8184.548,0.733471666667
8186.476,0.738049433333
8188.405,0.764785766667
8190.333,0.696158233333
8192.262,0.690584866667
8194.19,0.697930866667
8196.118,0.696373433333
8198.047,0.6923943
8199.976,0.660083166667
8201.904,0.698946766667
8203.833,0.705539766667
8205.761,0.6607305
8207.689,0.6819484
8209.618,0.692785866667
8211.547,0.693182366667
8213.476,0.707379566667
8215.403,0.7356108
8217.332,0.7316175
8219.261,0.757564866667
8221.189,0.725898666667
8223.117,0.718824833333
8225.046,0.7261142
8226.975,0.763703933333
8228.903,0.690219166667
8230.832,0.6704265
8232.76,0.6704198
8234.688,0.669791733333
8236.617,0.642180966667
8238.546,0.641571633333
8240.474,0.694238233333
8242.402,0.687637733333
8244.331,0.679926166667
8246.26,0.745475433333
8248.188,0.7654884
8250.116,0.792376866667
8252.045,0.740100633333
8253.974,0.7440118
8255.902,0.7557515
8257.831,0.7370998
8259.759,0.727172633333
8261.688,0.829934233333
8263.616,0.950729233333
8265.545,0.7837629
8267.473,0.6602072
8269.401,0.667928066667
8271.33,0.7216514
8273.259,0.7465479
8275.188,0.658231333333
8277.115,0.638199733333
8279.044,0.651298166667
8280.973,0.678015466667
8282.901,0.636429766667
8284.829,0.650425266667
8286.758,0.7096071
8288.687,0.6907328
8290.615,0.6530779
8292.544,0.636239066667
8294.472,0.627376733333
8296.4,0.685394133333
8298.329,0.680365733333
8300.258,0.689033666667
8302.187,0.663971133333
8304.114,0.673617166667
8306.043,0.698475466667
8307.972,0.678623233333
8309.9,0.624540666667
8311.828,0.619066966667
8313.757,0.6445786
8315.686,0.677268733333
8317.614,0.773250033333
8319.543,0.856532066667
8321.471,0.7787624
8323.399,0.743751866667
8325.328,0.682842133333
8327.257,0.674410966667
8329.185,0.704540033333
8331.113,0.631207366667
8333.042,0.6250009
8334.971,0.7133632
8336.899,0.6937922
8338.827,0.6087835
8340.756,0.6119095
8342.685,0.628851933333
8344.613,0.654
8346.542,0.6445668
8348.47,0.624444933333
8350.398,0.6989781
8352.327,0.745340833333
8354.256,0.755891866667
8356.184,0.729054333333
8358.112,0.6805543
8360.041,0.666551633333
8361.97,0.7547991
8363.898,0.812831566667
8365.826,0.8057466
8367.755,0.819681266667
8369.684,0.701221166667
8371.612,0.672964333333
8373.54,0.695152733333
8375.469,0.715260633333
8377.397,0.740891666667
8379.326,0.727981433333
8381.255,0.692335666667
8383.183,0.756832833333
8385.111,0.8508638
8387.04,0.805353266667
8388.969,0.682671166667
8390.897,0.661765666667
8392.825,0.758793833333
8394.754,0.7171303
8396.683,0.6297782
8398.611,0.6298728
8400.539,0.682427466667
8402.468,0.682791933333
8404.396,0.8522838
8406.325,1.13983946667
8408.254,0.873906466667
8410.182,0.836038066667
8412.11,0.722823566667
8414.039,0.7188475
8415.968,0.781047233333
8417.896,0.8090929
8419.824,0.946583833333
8421.753,1.07000733333
8423.682,0.6709534
8425.61,0.603543366667
8427.538,0.663397633333
8429.467,0.740357266667
8431.396,0.7131262
8433.324,0.7271679
8435.253,0.713813833333
8437.181,0.6564725
8439.109,0.644054833333
8441.038,0.720292133333
8442.967,0.7904753
8444.895,0.796805133333
8446.823,0.7105814
8448.752,0.749775266667
8450.681,0.774775133333
8452.609,0.738419066667
8454.537,0.809820966667
8456.466,0.9465581
8458.395,0.945421166667
8460.323,0.8711828
8462.251,1.061617
8464.18,0.727846633333
8466.108,0.727383433333
8468.037,0.678154133333
8469.966,0.622336166667
8471.894,0.827063966667
8473.822,1.16876
8475.751,0.848270766667
8477.68,0.7777381
8479.608,0.6885461
8481.536,0.712576066667
8483.465,0.881748966667
8485.394,0.961903066667
8487.322,0.829964766667
8489.25,0.812512166667
8491.179,0.793055233333
8493.107,0.725938033333
8495.036,0.7443796
8496.965,0.894169266667
8498.893,0.775219233333
8500.821,0.6438489
