449.3401,-1.86971966667
451.2686,-1.02765076667
453.1971,-0.888556266667
455.1256,-1.07057146667
457.0541,-1.116445
458.9826,-1.0654823
460.9111,-1.289148
462.8396,-1.55212166667
464.7681,6.0
466.6966,-1.47086666667
468.6251,-1.07961733333
470.5536,-0.940494166667
472.4821,-1.38215266667
474.4106,-1.328756
476.3391,-0.995118066667
478.2676,-1.11922666667
480.1961,-1.66242533333
482.1246,-1.02918406667
484.0531,-0.974510633333
485.9816,-1.30461566667
487.9101,6.0
489.8386,-1.35607766667
491.7671,-1.230905
493.6956,-1.27088933333
495.6241,-1.33359633333
497.5526,-1.01510856667
499.4811,-1.20534266667
501.4096,-1.35623833333
503.3381,-1.45726233333
505.2666,-1.000988
507.1951,-1.09250503333
509.1236,-0.973439266667
511.0521,-1.23958333333
512.9806,-1.46488766667
514.9091,-1.57313633333
516.8376,-1.89223233333
518.7661,-1.49592833333
520.6946,-1.0179744
522.6231,-0.9099867
524.5516,-0.752739666667
526.4801,-0.9365054
528.4086,-1.320752
530.3371,-1.29807033333
532.2656,-0.667897
534.1941,-0.652995766667
536.1226,-0.6699029
538.0511,-0.739432
539.9796,-0.745100033333
541.9081,-0.755625333333
543.8365,-0.680523233333
545.7651,-0.654752866667
547.6935,-0.4987538
549.6221,-0.426194666667
551.5506,-0.422753966667
553.4791,-0.4160322
555.4076,-0.367418933333
557.3361,-0.3785382
559.2646,-0.348294566667
561.1931,-0.2735336
563.1216,-0.1862579
565.05,-0.15046541
566.9786,-0.0628488066667
568.907,0.00438877666667
570.8356,0.0580088133333
572.764,0.10223208
574.6926,0.14089374
576.621,0.17645101
578.5496,0.2374033
580.478,0.271282333333
582.4066,0.332994266667
584.335,0.375956466667
586.2635,0.4044263
588.192,0.467095166667
590.1205,0.516838166667
592.049,0.5323605
593.9775,0.560948533333
595.906,0.596262766667
597.8345,0.616743266667
599.7631,0.631983866667
601.6915,0.655342666667
603.6201,0.684936866667
605.5485,0.698392733333
607.4771,0.708868633333
609.4055,0.7243945
611.334,0.726214033333
613.2625,0.7483926
615.191,0.7780905
617.1195,0.787105766667
619.048,0.8075898
620.9765,0.812471533333
622.905,0.8256441
624.8335,0.850410266667
626.762,0.8770837
628.6905,0.896124
630.619,0.893078233333
632.5475,0.8969083
634.476,0.9178538
636.4045,0.9488249
638.333,0.957463333333
640.2615,0.958619133333
642.19,0.964640433333
644.1185,0.973077866667
646.047,0.985699666667
647.9755,0.991391266667
649.904,1.0000658
651.8325,1.00714266667
653.761,1.00807106667
655.6895,1.00952023333
657.618,1.02691453333
659.5465,1.0299267
661.475,1.0495028
663.4035,1.08801533333
665.332,1.068035
667.2605,0.895223833333
669.189,0.888080366667
671.1175,1.05146066667
673.046,1.10199233333
674.9745,1.11854866667
676.903,1.11137266667
678.8315,1.11322233333
680.7599,1.131426
682.6885,1.137091
684.6169,1.150897
686.5455,1.17120166667
688.4739,1.17319133333
690.4025,1.16997733333
692.3309,1.17848933333
694.2595,1.19276633333
696.188,1.21572966667
698.1165,1.23253966667
700.045,1.24422166667
701.9734,1.26120866667
703.902,1.26869666667
705.8304,1.27336666667
707.759,1.288178
709.6874,1.29913333333
711.616,1.301621
713.5444,1.30308433333
715.473,1.30329766667
717.4014,1.30748766667
719.33,1.30891733333
721.2584,1.30840966667
723.187,1.31351566667
725.1154,1.305421
727.0439,1.312816
728.9724,1.33845
730.9009,1.32311033333
732.8294,1.308567
734.7579,1.317174
736.6864,1.318824
738.6149,1.31945133333
740.5434,1.32993633333
742.4719,1.34247833333
744.4004,1.353747
746.3289,1.35345666667
748.2574,1.342601
750.1859,1.337589
752.1144,1.342398
754.0429,1.35501666667
755.9714,1.35682633333
757.8999,1.358568
759.8284,1.36537933333
761.7569,1.36685833333
763.6854,1.37910033333
765.6139,1.40073266667
767.5424,1.3907
769.4709,1.378822
771.3994,1.37327733333
773.3279,1.37592433333
775.2564,1.40111966667
777.1849,1.408965
779.1134,1.396751
781.0419,1.39335033333
782.9704,1.394458
784.8989,1.386606
786.8274,1.398577
788.7559,1.41356433333
790.6844,1.41568633333
792.6129,1.404861
794.5414,1.39518133333
796.4699,1.413572
798.3984,1.41084433333
800.3269,1.40362933333
802.2554,1.421749
804.1839,1.42159066667
806.1124,1.426653
808.0409,1.436654
809.9694,1.42622133333
811.8979,1.41733266667
813.8264,1.43457833333
815.7549,1.44799033333
817.6833,1.448491
819.6119,1.44416733333
821.5403,1.45776166667
823.4689,1.473107
825.3973,1.479761
827.3259,1.486535
829.2543,1.47998866667
831.1829,1.47971133333
833.1113,1.494331
835.0399,1.511792
836.9683,1.51424633333
838.8969,1.50072066667
840.8253,1.494316
842.7538,1.48734566667
844.6824,1.49921566667
846.6108,1.50715266667
848.5394,1.50814966667
850.4678,1.51597966667
852.3964,1.51862633333
854.3248,1.51529566667
856.2534,1.50688266667
858.1818,1.507687
860.1104,1.51139633333
862.0388,1.506372
863.9673,1.49419433333
865.8958,1.490785
867.8243,1.50307466667
869.7528,1.51559866667
871.6813,1.50421333333
873.6098,1.50072333333
875.5383,1.52976766667
877.4668,1.543237
879.3953,1.55023766667
881.3238,1.55385
883.2523,1.55246566667
885.1808,1.55424033333
887.1093,1.54730333333
889.0378,1.53789366667
890.9663,1.54100866667
892.8948,1.55080433333
894.8233,1.56072133333
896.7518,1.57162533333
898.6803,1.55546033333
900.6088,1.54604566667
902.5373,1.560474
904.4658,1.570227
906.3943,1.57464533333
908.3228,1.59150066667
910.2513,1.58811
912.1798,1.577405
914.1083,1.57280766667
916.0368,1.575316
917.9653,1.60316933333
919.8938,1.61713033333
921.8223,1.60201766667
923.7508,1.59422533333
925.6793,1.61149933333
927.6078,1.61647966667
929.5363,1.601604
931.4648,1.61474866667
933.3932,1.62863366667
935.3218,1.629553
937.2502,1.628141
939.1788,1.62706566667
941.1072,1.615323
943.0358,1.63005233333
944.9643,1.65197066667
946.8928,1.64891933333
948.8213,1.64872166667
950.7498,1.64653166667
952.6783,1.62462466667
954.6068,1.637042
956.5353,1.66034766667
958.4637,1.66160166667
960.3923,1.65243166667
962.3207,1.65143166667
964.2493,1.65967166667
966.1777,1.68279866667
968.1063,1.69005233333
970.0347,1.67478433333
971.9633,1.64738033333
973.8917,1.65328166667
975.8203,1.66205166667
977.7487,1.655737
979.6772,1.646447
981.6057,1.64905766667
983.5342,1.67025566667
985.4627,1.69999466667
987.3912,1.710675
989.3197,1.703058
991.2482,1.68455866667
993.1768,1.66680866667
995.1052,1.67142933333
997.0338,1.70299266667
998.9622,1.697795
1000.891,1.68733533333
1002.819,1.69511666667
1004.748,1.67119366667
1006.676,1.668864
1008.605,1.68923666667
1010.533,1.699909
1012.462,1.715116
1014.39,1.707098
1016.319,1.68041566667
1018.247,1.66689266667
1020.176,1.67023133333
1022.104,1.68477633333
1024.033,1.683173
1025.961,1.67722466667
1027.89,1.693898
1029.818,1.709987
1031.747,1.70291533333
1033.675,1.70527666667
1035.604,1.71709233333
1037.532,1.71573233333
1039.461,1.69352033333
1041.389,1.67564466667
1043.318,1.67300533333
1045.246,1.67911033333
1047.175,1.682095
1049.103,1.685699
1051.032,1.70454066667
1052.96,1.733298
1054.889,1.734449
1056.817,1.73389733333
1058.746,1.72374866667
1060.674,1.72439266667
1062.603,1.74340266667
1064.531,1.73791866667
1066.46,1.72805433333
1068.388,1.74610533333
1070.317,1.750288
1072.245,1.734409
1074.174,1.74256566667
1076.102,1.76447
1078.031,1.76692066667
1079.959,1.765063
1081.888,1.76794866667
1083.816,1.78544966667
1085.745,1.78928033333
1087.673,1.78051833333
1089.602,1.787214
1091.53,1.77926766667
1093.459,1.78962
1095.387,1.80610033333
1097.316,1.79641166667
1099.244,1.78246766667
1101.173,1.781833
1103.101,1.78553766667
1105.03,1.779868
1106.958,1.79488066667
1108.887,1.823256
1110.815,1.82136266667
1112.744,1.78327966667
1114.672,1.78908366667
1116.601,1.822638
1118.529,1.827544
1120.458,1.839502
1122.386,1.85954266667
1124.315,1.86884
1126.243,1.85648133333
1128.172,1.82581033333
1130.1,1.80889733333
1132.029,1.82437466667
1133.957,1.829587
1135.886,1.83338666667
1137.814,1.86556066667
1139.743,1.871921
1141.671,1.83557233333
1143.6,1.82772933333
1145.528,1.83510233333
1147.457,1.84676
1149.385,1.84414966667
1151.314,1.854364
1153.242,1.86833866667
1155.171,1.86499566667
1157.099,1.85791933333
1159.028,1.868073
1160.956,1.873085
1162.885,1.88588233333
1164.813,1.88258333333
1166.742,1.869523
1168.67,1.866159
1170.599,1.88808333333
1172.527,1.910319
1174.456,1.92974166667
1176.384,1.93130166667
1178.313,1.910399
1180.241,1.85855366667
1182.17,1.87520033333
1184.098,1.889659
1186.027,1.884621
1187.955,1.894962
1189.884,1.90540733333
1191.812,1.92159466667
1193.741,1.93396066667
1195.669,1.90709266667
1197.598,1.89690266667
1199.526,1.92771933333
1201.455,1.958209
1203.383,1.927553
1205.312,1.901968
1207.24,1.922104
1209.169,1.92669933333
1211.097,1.913486
1213.026,1.91777333333
1214.954,1.93294133333
1216.883,1.93657833333
1218.811,1.94729466667
1220.74,1.96281433333
1222.668,1.96660566667
1224.597,1.97644633333
1226.525,1.97877766667
1228.453,1.96448233333
1230.382,1.95696433333
1232.311,1.96223833333
1234.239,1.954759
1236.167,1.96137833333
1238.096,1.96641866667
1240.025,1.96708933333
1241.953,1.983979
1243.882,1.97791366667
1245.81,1.956865
1247.739,1.95767766667
1249.667,1.96513266667
1251.596,1.96399366667
1253.524,1.942869
1255.453,1.91546233333
1257.381,1.92223666667
1259.31,1.93936033333
1261.238,1.938642
1263.167,1.94302833333
1265.095,1.94972566667
1267.024,1.959317
1268.952,1.969438
1270.88,1.95750133333
1272.809,1.93702133333
1274.738,1.96680333333
1276.666,1.967915
1278.594,1.97187366667
1280.523,1.98937366667
1282.452,1.98577166667
1284.38,2.00180766667
1286.308,1.99515533333
1288.237,1.97388533333
1290.166,1.999023
1292.094,1.99250133333
1294.022,2.00494
1295.951,2.021336
1297.88,2.024137
1299.808,2.02224766667
1301.736,2.02729833333
1303.665,2.01393366667
1305.594,2.00931266667
1307.522,2.02925466667
1309.45,2.02631566667
1311.379,1.99702366667
1313.307,1.97672966667
1315.236,1.99457133333
1317.164,2.01656
1319.093,2.000446
1321.021,2.01589166667
1322.95,2.037242
1324.878,2.03758066667
1326.807,2.024258
1328.735,1.99421433333
1330.664,1.978671
1332.592,1.99073666667
1334.521,1.999741
1336.449,2.00385
1338.378,1.98309433333
1340.307,1.97986333333
1342.235,2.01017133333
1344.163,2.03932566667
1346.092,2.06335533333
1348.021,2.06991933333
1349.949,2.05896066667
1351.877,2.04679133333
1353.806,2.025985
1355.734,2.02067233333
1357.663,2.030113
1359.591,2.029795
1361.52,1.96862566667
1363.448,1.970953
1365.377,2.02637
1367.305,2.016256
1369.234,1.98445866667
1371.162,1.97566066667
1373.091,1.96200033333
1375.019,1.99273233333
1376.948,2.02740466667
1378.876,2.04187733333
1380.805,2.06378933333
1382.733,2.04861333333
1384.662,2.004206
1386.59,1.997054
1388.519,2.01932466667
1390.447,2.05677266667
1392.376,2.028614
1394.304,1.94680033333
1396.233,1.96430566667
1398.161,1.99010933333
1400.09,1.99738766667
1402.018,2.02855766667
1403.947,2.03168933333
1405.875,2.049196
1407.804,2.06821366667
1409.732,2.076467
1411.661,2.04612533333
1413.589,2.02535066667
1415.518,1.99551966667
1417.446,1.94629966667
1419.375,1.94990633333
1421.303,2.04339633333
1423.232,2.047643
1425.16,2.05681233333
1427.089,2.066862
1429.017,2.014981
1430.946,2.00528433333
1432.874,2.03644666667
1434.803,1.99856466667
1436.731,1.94815766667
1438.66,2.013113
1440.588,2.06241733333
1442.517,2.06466833333
1444.445,2.06269666667
1446.374,2.04432766667
1448.302,2.031389
1450.231,2.04887733333
1452.159,2.06254966667
1454.088,2.02748866667
1456.016,1.919821
1457.945,1.89099966667
1459.873,2.032781
1461.802,2.09531466667
1463.73,2.053096
1465.659,2.02665166667
1467.587,2.06410066667
1469.516,2.041304
1471.444,1.96366333333
1473.373,1.93230833333
1475.301,2.01415133333
1477.23,2.04270966667
1479.158,2.05441766667
1481.087,2.03620633333
1483.015,2.00297933333
1484.944,1.97895766667
1486.872,1.92569366667
1488.801,1.83059966667
1490.729,1.80794433333
1492.658,1.82714833333
1494.586,1.787715
1496.515,1.700656
1498.443,1.64519733333
1500.372,1.61811566667
1502.3,1.60485933333
1504.229,1.57477033333
1506.157,1.49420533333
1508.086,1.450812
1510.014,1.47642566667
1511.943,1.473766
1513.871,1.464685
1515.8,1.444325
1517.728,1.42253166667
1519.657,1.41572133333
1521.585,1.405178
1523.514,1.41436966667
1525.442,1.42017433333
1527.371,1.430273
1529.299,1.44832433333
1531.228,1.44716433333
1533.156,1.433466
1535.085,1.43272566667
1537.013,1.42958566667
1538.942,1.391845
1540.87,1.36307966667
1542.799,1.36810566667
1544.727,1.37424033333
1546.656,1.377556
1548.584,1.36539933333
1550.513,1.344347
1552.441,1.33978066667
1554.37,1.32340033333
1556.298,1.30523133333
1558.227,1.27436266667
1560.155,1.26685833333
1562.084,1.27234233333
1564.012,1.26530566667
1565.941,1.255022
1567.869,1.24945533333
1569.798,1.23704333333
1571.726,1.235324
1573.655,1.23042066667
1575.583,1.21526533333
1577.512,1.21153666667
1579.44,1.21745666667
1581.369,1.21850833333
1583.297,1.22000366667
1585.226,1.22131566667
1587.154,1.22377433333
1589.083,1.22481666667
1591.011,1.22715766667
1592.94,1.23295533333
1594.868,1.24071633333
1596.797,1.249616
1598.725,1.26047133333
1600.654,1.27262633333
1602.582,1.29036466667
1604.511,1.30878366667
1606.439,1.32714733333
1608.368,1.35120666667
1610.296,1.382079
1612.225,1.412112
1614.153,1.43750333333
1616.082,1.46687333333
1618.01,1.51965933333
1619.939,1.561036
1621.867,1.59821266667
1623.796,1.667115
1625.724,1.73506566667
1627.653,1.80491533333
1629.581,1.91384333333
1631.51,2.00577933333
1633.438,2.020995
1635.367,2.024939
1637.295,2.14525766667
1639.224,2.25078966667
1641.152,2.27740333333
1643.081,2.26701
1645.009,2.23267966667
1646.938,2.17188666667
1648.866,2.22829966667
1650.795,2.22435833333
1652.723,2.08712766667
1654.652,2.08070166667
1656.58,2.21508233333
1658.509,2.292109
1660.437,2.29745933333
1662.366,2.27795966667
1664.294,2.28781833333
1666.223,2.269684
1668.151,2.21718266667
1670.08,2.22193166667
1672.008,2.24703233333
1673.937,2.22797733333
1675.865,2.26751933333
1677.794,2.29351566667
1679.722,2.26689
1681.651,2.24518933333
1683.579,2.10002333333
1685.508,2.103178
1687.436,2.20406466667
1689.365,2.233029
1691.293,2.245499
1693.222,2.21248733333
1695.15,2.127871
1697.079,2.08927666667
1699.007,2.06525566667
1700.936,2.07683966667
1702.864,2.161353
1704.793,2.15776566667
1706.721,2.18114633333
1708.65,2.22613966667
1710.578,2.23424466667
1712.507,2.230056
1714.435,2.16470733333
1716.364,2.096972
1718.292,2.10125633333
1720.221,2.192234
1722.149,2.218906
1724.078,2.217317
1726.006,2.23033666667
1727.935,2.18504433333
1729.863,2.16842433333
1731.792,2.19137433333
1733.72,2.17220066667
1735.649,2.250943
1737.577,2.287048
1739.506,2.276865
1741.434,2.26690233333
1743.363,2.25592
1745.291,2.23037833333
1747.22,2.19853533333
1749.148,2.217837
1751.077,2.24581233333
1753.005,2.25068533333
1754.934,2.27128266667
1756.862,2.29286833333
1758.791,2.325891
1760.719,2.298117
1762.648,2.28367933333
1764.576,2.341073
1766.505,2.348214
1768.433,2.34133433333
1770.362,2.33748133333
1772.29,2.312725
1774.219,2.342559
1776.147,2.379072
1778.076,2.381877
1780.004,2.36398466667
1781.933,2.38209733333
1783.861,2.399998
1785.79,2.393897
1787.718,2.381744
1789.647,2.39850566667
1791.575,2.46292433333
1793.504,2.429888
1795.432,2.36336766667
1797.361,2.34648433333
1799.289,2.38668633333
1801.218,2.379482
1803.146,2.35625633333
1805.075,2.37709766667
1807.003,2.35823533333
1808.932,2.31726
1810.86,2.35715233333
1812.789,2.38759233333
1814.717,2.387424
1816.646,2.40838633333
1818.574,2.40173966667
1820.503,2.39912833333
1822.431,2.436579
1824.36,2.45910533333
1826.288,2.528438
1828.217,2.48643566667
1830.145,2.43691866667
1832.074,2.456187
1834.002,2.49469333333
1835.931,2.50545733333
1837.859,2.529936
1839.788,2.58176333333
1841.716,2.573551
1843.645,2.481057
1845.573,2.41625233333
1847.502,2.45986566667
1849.43,2.46570533333
1851.359,2.42088333333
1853.287,2.39481233333
1855.216,2.36781766667
1857.144,2.37414333333
1859.073,2.36008466667
1861.001,2.35266433333
1862.93,2.369992
1864.858,2.367698
1866.786,2.33773133333
1868.715,2.295334
1870.644,2.22738333333
1872.572,2.20252133333
1874.5,2.18419333333
1876.429,2.156658
1878.358,2.126092
1880.286,2.076038
1882.215,2.02986966667
1884.143,1.995504
1886.072,1.96418166667
1888.0,1.933503
1889.929,1.91809433333
1891.857,1.88024533333
1893.786,1.84157566667
1895.714,1.81419066667
1897.643,1.79156233333
1899.571,1.76778866667
1901.5,1.74664533333
1903.428,1.70929633333
1905.357,1.67286566667
1907.285,1.65113566667
1909.214,1.626769
1911.142,1.60127366667
1913.071,1.58381566667
1914.999,1.56159
1916.927,1.54003766667
1918.856,1.52545133333
1920.785,1.518589
1922.713,1.50440933333
1924.641,1.48047766667
1926.57,1.45162233333
1928.499,1.41235133333
1930.427,1.36982433333
1932.355,1.31327933333
1934.284,1.24979433333
1936.213,1.18392866667
1938.141,1.113854
1940.069,1.04899483333
1941.998,0.989622066667
1943.927,0.933581133333
1945.855,0.888969933333
1947.783,0.847700333333
1949.712,0.810513533333
1951.641,0.7768763
1953.569,0.745911733333
1955.497,0.7166175
1957.426,0.6901268
1959.354,0.665164466667
1961.283,0.6417768
1963.211,0.620143333333
1965.14,0.600880333333
1967.068,0.581865633333
1968.997,0.5655812
1970.925,0.551831733333
1972.854,0.539205233333
1974.782,0.527815066667
1976.711,0.5176139
1978.639,0.508596733333
1980.568,0.501102166667
1982.496,0.494734866667
1984.425,0.489529033333
1986.354,0.484241466667
1988.282,0.479827833333
1990.21,0.475690933333
1992.139,0.471621966667
1994.068,0.468053066667
1995.996,0.4661918
1997.924,0.464051966667
1999.853,0.4613606
2001.781,0.459063033333
2003.71,0.4583368
2005.638,0.458112566667
2007.567,0.4578908
2009.495,0.457130433333
2011.424,0.457495366667
2013.352,0.457596133333
2015.281,0.457754033333
2017.209,0.456056066667
2019.138,0.453380033333
2021.066,0.448931933333
2022.995,0.441857366667
2024.923,0.431084
2026.852,0.419295266667
2028.78,0.406113233333
2030.709,0.392039766667
2032.637,0.3777835
2034.566,0.3642131
2036.494,0.3495621
2038.423,0.334760766667
2040.351,0.319109133333
2042.28,0.302643133333
2044.208,0.2859853
2046.137,0.269408633333
2048.065,0.2527267
2049.994,0.237532083333
2051.922,0.223025306667
2053.851,0.210091593333
2055.779,0.19868316
2057.708,0.18815395
2059.636,0.178076596667
2061.565,0.169655663333
2063.493,0.16187234
2065.422,0.154879166667
2067.35,0.148490116667
2069.279,0.142620028
2071.207,0.137313918667
2073.136,0.1325722229
2075.064,0.127502089667
2076.993,0.123117779333
2078.921,0.118349856667
2080.85,0.11401509
2082.778,0.109631903333
2084.707,0.10550249
2086.635,0.10116498
2088.564,0.0975480466667
2090.492,0.0936253066667
2092.421,0.08982244
2094.349,0.0855317333333
2096.278,0.0815652466667
2098.206,0.0775740133333
2100.135,0.0739266833333
2102.063,0.07041916
2103.992,0.0670399533333
2105.92,0.06316244
2107.849,0.0597070266667
2109.777,0.0561779166667
2111.706,0.05256273
2113.634,0.0487034333333
2115.563,0.0452838666667
2117.491,0.0421042133333
2119.42,0.0393039266667
2121.348,0.0360844766667
2123.277,0.0330041766667
2125.205,0.0300419166667
2127.134,0.0280233366667
2129.062,0.0259848066667
2130.991,0.0238409966667
2132.919,0.0213356866667
2134.848,0.0192830766667
2136.776,0.01724687
2138.705,0.0157788766667
2140.633,0.0139392033333
2142.562,0.0122812166667
2144.49,0.0107345533333
2146.419,0.00936714
2148.347,0.00762373333333
2150.276,0.00635719333333
2152.204,0.00496952666667
2154.133,0.00357156666667
2156.061,0.00152177333333
2157.99,-0.000163583333333
2159.918,-0.00215042333333
2161.847,-0.00411863333333
2163.775,-0.00646953
2165.704,-0.00853096333333
2167.632,-0.0114456266667
2169.561,-0.0139411866667
2171.489,-0.0166380733333
2173.418,-0.0194861933333
2175.346,-0.0228646666667
2177.275,-0.0258370833333
2179.203,-0.02924046
2181.132,-0.0327097166667
2183.06,-0.0365716733333
2184.989,-0.040612498
2186.917,-0.0449524216667
2188.846,-0.0490486054333
2190.774,-0.0533114226667
2192.703,-0.0573208323333
2194.631,-0.06168752
2196.56,-0.066250807
2198.488,-0.070887741
2200.417,-0.0744243948
2202.345,-0.0785069623333
2204.274,-0.08312909
2206.202,-0.0874751166667
2208.131,-0.0911264566667
2210.059,-0.0946681966667
2211.988,-0.09833055
2213.916,-0.102636733333
2215.845,-0.106040166667
2217.773,-0.109542566667
2219.702,-0.112448533333
2221.63,-0.11535262
2223.559,-0.11858594
2225.487,-0.122012206667
2227.416,-0.124724076667
2229.344,-0.127800096667
2231.273,-0.13110653
2233.201,-0.13418602
2235.13,-0.136708086667
2237.058,-0.139867056667
2238.987,-0.142814693333
2240.915,-0.145970833333
2242.844,-0.14856359
2244.772,-0.1514718
2246.701,-0.154287586667
2248.629,-0.157228126667
2250.558,-0.159883373333
2252.486,-0.162466033333
2254.415,-0.164776733333
2256.343,-0.1678047
2258.272,-0.170831273333
2260.2,-0.173537333333
2262.129,-0.1757678
2264.057,-0.1781651
2265.986,-0.180238133333
2267.914,-0.182641133333
2269.843,-0.184902833333
2271.771,-0.187435
2273.7,-0.189894133333
2275.628,-0.192417566667
2277.557,-0.194745733333
2279.485,-0.197221
2281.414,-0.199472933333
2283.342,-0.202346866667
2285.271,-0.205024366667
2287.199,-0.208251733333
2289.128,-0.211228833333
2291.056,-0.2144373
2292.985,-0.217986966667
2294.913,-0.2215691
2296.842,-0.224470833333
2298.77,-0.227819766667
2300.699,-0.2308702
2302.627,-0.234297833333
2304.556,-0.237422633333
2306.484,-0.2408839
2308.413,-0.244248766667
2310.341,-0.2479733
2312.27,-0.2517114
2314.198,-0.255674133333
2316.127,-0.258852933333
2318.055,-0.2619958
2319.984,-0.265370733333
2321.912,-0.269636733333
2323.841,-0.272582133333
2325.769,-0.2752446
2327.698,-0.277856266667
2329.626,-0.2807674
2331.555,-0.283923466667
2333.483,-0.287593266667
2335.412,-0.289423866667
2337.34,-0.293282866667
2339.269,-0.2969304
2341.197,-0.298624733333
2343.126,-0.300080066667
2345.054,-0.303243633333
2346.983,-0.3031051
2348.911,-0.3035562
2350.84,-0.3074636
2352.768,-0.3130387
2354.697,-0.3159995
2356.625,-0.320905333333
2358.554,-0.324899233333
2360.482,-0.330345066667
2362.411,-0.332850133333
2364.339,-0.332998933333
2366.268,-0.3307726
2368.196,-0.3328266
2370.125,-0.333969533333
2372.053,-0.332791333333
2373.982,-0.3312589
2375.91,-0.331329366667
2377.839,-0.331454033333
2379.767,-0.332242333333
2381.696,-0.332793833333
2383.624,-0.333472466667
2385.553,-0.3344873
2387.481,-0.335970466667
2389.41,-0.3370789
2391.338,-0.3386669
2393.267,-0.3404683
2395.195,-0.342530466667
2397.124,-0.344305666667
2399.052,-0.346211033333
2400.981,-0.34782
2402.909,-0.349706766667
2404.838,-0.351151433333
2406.766,-0.352624466667
2408.695,-0.354355866667
2410.623,-0.356488933333
2412.552,-0.357762866667
2414.48,-0.3591464
2416.409,-0.360769433333
2418.337,-0.362447866667
2420.266,-0.363688
2422.194,-0.365234133333
2424.123,-0.3666992
2426.051,-0.3681995
2427.98,-0.3693209
2429.908,-0.370505966667
2431.837,-0.3716
2433.765,-0.3729093
2435.694,-0.374006366667
2437.622,-0.375180466667
2439.551,-0.3757917
2441.479,-0.376441166667
2443.408,-0.376838766667
2445.336,-0.377250466667
2447.265,-0.3771769
2449.193,-0.376821166667
2451.122,-0.376368833333
2453.05,-0.376230033333
2454.979,-0.375675166667
2456.907,-0.3747164
2458.836,-0.3730302
2460.764,-0.371076766667
2462.693,-0.368682833333
2464.621,-0.366039366667
2466.55,-0.362722766667
2468.478,-0.359206466667
2470.406,-0.354829866667
2472.335,-0.3501758
2474.264,-0.345236366667
2476.192,-0.3406849
2478.121,-0.335441633333
2480.049,-0.3303327
2481.978,-0.3257205
2483.906,-0.321977666667
2485.834,-0.319425233333
2487.763,-0.3181281
2489.692,-0.317474766667
2491.62,-0.3183562
2493.549,-0.319760566667
2495.477,-0.3223852
2497.406,-0.325834933333
2499.334,-0.329972866667
2501.262,-0.334467533333
2503.191,-0.339542233333
2505.12,-0.344342233333
2507.048,-0.349427733333
2508.977,-0.354962133333
2510.905,-0.360758133333
2512.833,-0.365999533333
2514.762,-0.370932333333
2516.69,-0.3756005
2518.619,-0.380097666667
2520.548,-0.3840605
2522.476,-0.387976
2524.405,-0.391602533333
2526.333,-0.3951255
2528.261,-0.3980356
2530.19,-0.401108666667
2532.119,-0.403821
2534.047,-0.4065745
2535.976,-0.409091733333
2537.904,-0.411751533333
2539.833,-0.414409166667
2541.761,-0.417531033333
2543.689,-0.419815933333
2545.618,-0.422400066667
2547.547,-0.424941066667
2549.475,-0.4274571
2551.404,-0.429832933333
2553.332,-0.4326516
2555.26,-0.4351158
2557.189,-0.437392533333
2559.117,-0.4395884
2561.046,-0.4417078
2562.975,-0.443261533333
2564.903,-0.4450529
2566.832,-0.4465193
2568.76,-0.4479472
2570.688,-0.449292833333
2572.617,-0.450454933333
2574.545,-0.451441766667
2576.474,-0.4527839
2578.403,-0.453579166667
2580.331,-0.454540066667
2582.26,-0.455460933333
2584.188,-0.4564202
2586.116,-0.456977166667
2588.045,-0.4579044
2589.973,-0.4589001
2591.902,-0.459870633333
2593.831,-0.460310133333
2595.759,-0.461163766667
2597.688,-0.461998266667
2599.616,-0.4629669
2601.544,-0.463946433333
2603.473,-0.464815633333
2605.401,-0.465436833333
2607.33,-0.466615
2609.259,-0.467782733333
2611.187,-0.468860666667
2613.115,-0.469693766667
2615.044,-0.470322266667
2616.972,-0.4710271
2618.901,-0.472528966667
2620.829,-0.4738512
2622.758,-0.4750355
2624.687,-0.475997433333
2626.615,-0.477041266667
2628.543,-0.478141466667
2630.472,-0.479395133333
2632.4,-0.480304366667
2634.329,-0.4813171
2636.258,-0.482187
2638.186,-0.48324
2640.115,-0.484359466667
2642.043,-0.485678666667
2643.971,-0.486678966667
2645.9,-0.487716266667
2647.828,-0.4888022
2649.757,-0.490065
2651.686,-0.491334466667
2653.614,-0.4928639
2655.542,-0.4939891
2657.471,-0.495433466667
2659.399,-0.496373233333
2661.328,-0.497346433333
2663.256,-0.4985563
2665.185,-0.500483166667
2667.114,-0.501811166667
2669.042,-0.503442366667
2670.97,-0.504670166667
2672.899,-0.505901266667
2674.827,-0.507441
2676.756,-0.5093752
2678.684,-0.5108598
2680.613,-0.512590766667
2682.542,-0.51409
2684.47,-0.515816233333
2686.398,-0.5173576
2688.327,-0.5190482
2690.255,-0.520655166667
2692.184,-0.522369333333
2694.112,-0.523793033333
2696.041,-0.525724966667
2697.969,-0.5274346
2699.898,-0.528803466667
2701.826,-0.530380433333
2703.755,-0.532427733333
2705.683,-0.534222333333
2707.612,-0.535732033333
2709.54,-0.537309266667
2711.469,-0.538957633333
2713.397,-0.540414566667
2715.326,-0.541870933333
2717.254,-0.543218333333
2719.183,-0.545054366667
2721.111,-0.546687133333
2723.04,-0.548046833333
2724.969,-0.5489491
2726.897,-0.550731133333
2728.825,-0.552309966667
2730.754,-0.553428766667
2732.682,-0.554407166667
2734.611,-0.556110966667
2736.539,-0.557104533333
2738.468,-0.558293666667
2740.396,-0.559293233333
2742.325,-0.560459166667
2744.253,-0.561372966667
2746.182,-0.562669833333
2748.11,-0.5640002
2750.039,-0.565087466667
2751.967,-0.565718433333
2753.896,-0.5669007
2755.824,-0.568094
2757.753,-0.569265266667
2759.681,-0.5702096
2761.61,-0.5713042
2763.538,-0.572365966667
2765.467,-0.573675566667
2767.395,-0.574337566667
2769.324,-0.575171833333
2771.252,-0.575842566667
2773.181,-0.576651066667
2775.109,-0.577652166667
2777.038,-0.578846666667
2778.966,-0.579600533333
2780.895,-0.5805635
2782.823,-0.581214433333
2784.752,-0.5824156
2786.68,-0.583589066667
2788.609,-0.5842491
2790.537,-0.584391933333
2792.466,-0.585041366667
2794.394,-0.5857743
2796.323,-0.586945766667
2798.251,-0.587691166667
2800.18,-0.5885371
2802.108,-0.589137433333
2804.037,-0.590161433333
2805.965,-0.591093233333
2807.894,-0.591817966667
2809.822,-0.5925263
2811.751,-0.593452433333
2813.679,-0.5940732
2815.608,-0.594946066667
2817.536,-0.595533533333
2819.465,-0.596798633333
2821.393,-0.597567533333
2823.322,-0.597900833333
2825.25,-0.598528933333
2827.179,-0.599841666667
2829.107,-0.600715966667
2831.036,-0.6014737
2832.964,-0.601887633333
2834.893,-0.602543566667
2836.821,-0.603273966667
2838.75,-0.6039204
2840.678,-0.604334233333
2842.607,-0.604814266667
2844.535,-0.6055051
2846.464,-0.606228866667
2848.392,-0.606705733333
2850.321,-0.607711633333
2852.249,-0.6081546
2854.178,-0.609156266667
2856.106,-0.610430833333
2858.035,-0.6113807
2859.963,-0.611787833333
2861.892,-0.612846766667
2863.82,-0.613590966667
2865.749,-0.614360666667
2867.677,-0.614870933333
2869.606,-0.615627533333
2871.534,-0.616137433333
2873.463,-0.6169503
2875.391,-0.617737933333
2877.32,-0.618775766667
2879.248,-0.619038566667
2881.177,-0.619308233333
2883.105,-0.6200352
2885.034,-0.621063466667
2886.962,-0.621549033333
2888.891,-0.622085
2890.819,-0.622652066667
2892.748,-0.6232707
2894.676,-0.623499366667
2896.605,-0.624251833333
2898.533,-0.6245914
2900.462,-0.624879833333
2902.39,-0.625449166667
2904.319,-0.6260708
2906.247,-0.626173733333
2908.176,-0.626582866667
2910.104,-0.6270143
2912.033,-0.627578866667
2913.961,-0.627900233333
2915.89,-0.628803033333
2917.818,-0.629497333333
2919.747,-0.6299834
2921.675,-0.630360566667
2923.604,-0.6305738
2925.532,-0.6306119
2927.461,-0.631538533333
2929.389,-0.632230433333
2931.318,-0.632894533333
2933.246,-0.6331117
2935.175,-0.633859166667
2937.103,-0.6344153
2939.032,-0.635071266667
2940.96,-0.635004266667
2942.889,-0.635644033333
2944.817,-0.636309166667
2946.746,-0.636704966667
2948.674,-0.637343366667
2950.603,-0.637794
2952.531,-0.637712233333
2954.46,-0.6384135
2956.388,-0.639043766667
2958.317,-0.639558
2960.245,-0.639666833333
2962.174,-0.6400463
2964.102,-0.640423666667
2966.031,-0.6410296
2967.959,-0.641695733333
2969.888,-0.642270166667
2971.816,-0.6424038
2973.745,-0.643214633333
2975.673,-0.643583166667
2977.602,-0.6436069
2979.53,-0.643683733333
2981.459,-0.6444019
2983.387,-0.645169066667
2985.316,-0.6457103
2987.244,-0.6459794
2989.173,-0.646661966667
2991.101,-0.646961866667
2993.03,-0.647330033333
2994.958,-0.647119966667
2996.887,-0.647276933333
2998.815,-0.6480237
3000.744,-0.648748233333
3002.672,-0.649245666667
3004.601,-0.650269566667
3006.529,-0.650597566667
3008.458,-0.650730833333
3010.386,-0.650654233333
3012.315,-0.651181633333
3014.243,-0.651654333333
3016.172,-0.6525817
3018.1,-0.6532146
3020.029,-0.6536881
3021.957,-0.653771066667
3023.886,-0.654094566667
3025.814,-0.6545717
3027.743,-0.6553241
3029.671,-0.6556044
3031.6,-0.6558541
3033.528,-0.6561097
3035.457,-0.656457733333
3037.385,-0.656690733333
3039.314,-0.657418966667
3041.242,-0.6577169
3043.171,-0.657960666667
3045.099,-0.658214666667
3047.028,-0.6588713
3048.956,-0.659279566667
3050.885,-0.659662
3052.813,-0.659886866667
3054.742,-0.6603554
3056.67,-0.660728666667
3058.599,-0.660877366667
3060.527,-0.660968566667
3062.456,-0.661521933333
3064.384,-0.6616603
3066.313,-0.662051466667
3068.241,-0.662107033333
3070.17,-0.662828966667
3072.098,-0.6635089
3074.027,-0.6643761
3075.955,-0.664677266667
3077.884,-0.664808433333
3079.812,-0.6647493
3081.741,-0.664908533333
3083.669,-0.665206966667
3085.598,-0.665332566667
3087.526,-0.6654017
3089.455,-0.666106
3091.383,-0.666066666667
3093.312,-0.666353633333
3095.24,-0.666592066667
3097.169,-0.6672718
3099.097,-0.667861866667
3101.026,-0.667783466667
3102.954,-0.667499733333
3104.883,-0.6681029
3106.811,-0.668869033333
3108.74,-0.6692779
3110.668,-0.669201533333
3112.597,-0.669502366667
3114.525,-0.6697904
3116.454,-0.669975133333
3118.382,-0.669958966667
3120.311,-0.670844033333
3122.239,-0.6715324
3124.167,-0.671498166667
3126.096,-0.671087033333
3128.025,-0.671761066667
3129.953,-0.672194533333
3131.882,-0.672277266667
3133.81,-0.6722327
3135.739,-0.6728131
3137.667,-0.6725721
3139.595,-0.672846733333
3141.524,-0.673400533333
3143.453,-0.6739172
3145.381,-0.6736726
3147.31,-0.6736978
3149.238,-0.673776333333
3151.167,-0.674229166667
3153.095,-0.6747512
3155.023,-0.6753883
3156.952,-0.6753055
3158.881,-0.6754372
3160.809,-0.6757376
3162.738,-0.6762473
3164.666,-0.676267866667
3166.594,-0.6761078
3168.523,-0.676336
3170.452,-0.676839633333
3172.38,-0.676653533333
3174.309,-0.676978933333
3176.237,-0.677542833333
3178.166,-0.677977233333
3180.094,-0.677804933333
3182.022,-0.677888766667
3183.951,-0.6780088
3185.88,-0.678513766667
3187.808,-0.6787169
3189.737,-0.678736033333
3191.665,-0.678933933333
3193.594,-0.6794962
3195.522,-0.679484733333
3197.45,-0.679728766667
3199.379,-0.680088133333
3201.308,-0.680395366667
3203.236,-0.6798732
3205.165,-0.6803739
3207.093,-0.6807122
3209.021,-0.6805293
3210.95,-0.680353566667
3212.878,-0.6806734
3214.807,-0.681089466667
3216.736,-0.681632733333
3218.664,-0.6817323
3220.593,-0.681938933333
3222.521,-0.682077566667
3224.449,-0.682650766667
3226.378,-0.682180966667
3228.306,-0.682252833333
3230.235,-0.682059233333
3232.164,-0.6824649
3234.092,-0.682886366667
3236.021,-0.682976533333
3237.949,-0.683354866667
3239.877,-0.684419666667
3241.806,-0.6845143
3243.734,-0.684199966667
3245.663,-0.6839401
3247.592,-0.683776266667
3249.52,-0.683712266667
3251.448,-0.684336666667
3253.377,-0.6848513
3255.305,-0.685401266667
3257.234,-0.685785833333
3259.162,-0.685965533333
3261.091,-0.685755266667
3263.02,-0.685897733333
3264.948,-0.6853945
3266.876,-0.685709166667
3268.805,-0.686198
3270.733,-0.686129933333
3272.662,-0.685852166667
3274.591,-0.6866807
3276.519,-0.6869064
3278.448,-0.686826166667
3280.376,-0.6866281
3282.304,-0.6871995
3284.233,-0.687133433333
3286.161,-0.687020566667
3288.09,-0.686902066667
3290.019,-0.687130333333
3291.947,-0.687087633333
3293.875,-0.6870126
3295.804,-0.686988433333
3297.732,-0.687442433333
3299.661,-0.687396666667
3301.589,-0.687129733333
3303.518,-0.687714766667
3305.447,-0.688049666667
3307.375,-0.687890566667
3309.303,-0.688173666667
3311.232,-0.688080166667
3313.16,-0.688592333333
3315.089,-0.6889217
3317.017,-0.688903866667
3318.946,-0.688844033333
3320.875,-0.6893947
3322.803,-0.689413933333
3324.731,-0.6893241
3326.66,-0.689042233333
3328.588,-0.689083966667
3330.517,-0.689517866667
3332.445,-0.690255733333
3334.374,-0.689973866667
3336.302,-0.690207
3338.231,-0.6904012
3340.159,-0.690730533333
3342.088,-0.691104566667
3344.016,-0.6918618
3345.945,-0.691818133333
3347.873,-0.691250933333
3349.802,-0.691208
3351.73,-0.6921651
3353.659,-0.692521166667
3355.587,-0.692166866667
3357.516,-0.691684966667
3359.444,-0.6915314
3361.373,-0.691688866667
3363.302,-0.69219
3365.23,-0.6920595
3367.158,-0.692413166667
3369.087,-0.6919859
3371.015,-0.692257966667
3372.944,-0.692922166667
3374.872,-0.6931632
3376.801,-0.693155133333
3378.729,-0.6929149
3380.658,-0.6928255
3382.586,-0.6933471
3384.515,-0.693239933333
3386.443,-0.6926398
3388.372,-0.693122233333
3390.3,-0.6938817
3392.229,-0.6933405
3394.157,-0.692577
3396.086,-0.692600133333
3398.014,-0.693151533333
3399.943,-0.693312966667
3401.871,-0.693279766667
3403.8,-0.6928651
3405.728,-0.693182033333
3407.657,-0.6932859
3409.585,-0.693299966667
3411.514,-0.693206933333
3413.442,-0.6932457
3415.371,-0.693065766667
3417.299,-0.693139433333
3419.228,-0.693432666667
3421.156,-0.693441733333
3423.085,-0.692888766667
3425.013,-0.692731733333
3426.942,-0.692513666667
3428.87,-0.692524233333
3430.799,-0.692403633333
3432.727,-0.692397133333
3434.656,-0.691956666667
3436.584,-0.691868166667
3438.513,-0.6922838
3440.441,-0.6926396
3442.37,-0.692374533333
3444.298,-0.693077466667
3446.227,-0.693352233333
3448.155,-0.693185833333
3450.084,-0.693029933333
3452.012,-0.693308433333
3453.941,-0.6933845
3455.869,-0.693432266667
3457.798,-0.693330666667
3459.726,-0.6939005
3461.655,-0.693190033333
3463.583,-0.6924639
3465.512,-0.692438433333
3467.44,-0.6922443
3469.369,-0.6924164
3471.297,-0.693498066667
3473.226,-0.6938346
3475.154,-0.694375266667
3477.083,-0.694232633333
3479.011,-0.6943142
3480.94,-0.694398633333
3482.868,-0.694529366667
3484.797,-0.6937817
3486.725,-0.6937197
3488.654,-0.693757166667
3490.582,-0.694523
3492.511,-0.695790033333
3494.439,-0.6962765
3496.368,-0.6952554
3498.296,-0.695726233333
3500.225,-0.697020166667
3502.153,-0.697640333333
3504.082,-0.697440433333
3506.01,-0.6973453
3507.939,-0.696851566667
3509.867,-0.696793433333
3511.796,-0.6970009
3513.724,-0.697121333333
3515.653,-0.697787966667
3517.581,-0.698735933333
3519.51,-0.6984124
3521.438,-0.699001
3523.367,-0.699963066667
3525.295,-0.6993863
3527.224,-0.699339366667
3529.152,-0.699717233333
3531.081,-0.699155333333
3533.009,-0.698860733333
3534.938,-0.6987231
3536.866,-0.699037233333
3538.795,-0.699296566667
3540.723,-0.700514133333
3542.652,-0.701370266667
3544.58,-0.701675033333
3546.509,-0.701102066667
3548.437,-0.700199533333
3550.366,-0.699923333333
3552.294,-0.700975166667
3554.223,-0.701106266667
3556.151,-0.700946566667
3558.08,-0.7011235
3560.008,-0.701721633333
3561.937,-0.701833733333
3563.865,-0.702311633333
3565.794,-0.703944533333
3567.722,-0.7040494
3569.651,-0.7023937
3571.579,-0.702751433333
3573.508,-0.702661066667
3575.436,-0.702803466667
3577.365,-0.702853633333
3579.293,-0.7027417
3581.222,-0.7024261
3583.15,-0.702605966667
3585.079,-0.703077133333
3587.007,-0.706014433333
3588.936,-0.706087733333
3590.864,-0.704216366667
3592.793,-0.703288766667
3594.721,-0.702317433333
3596.65,-0.702045366667
3598.578,-0.703295533333
3600.507,-0.704153366667
3602.435,-0.703934233333
3604.364,-0.703460366667
3606.292,-0.703790433333
3608.221,-0.703162933333
3610.149,-0.704002233333
3612.078,-0.7053024
3614.006,-0.705357266667
3615.935,-0.7050394
3617.863,-0.706795466667
3619.792,-0.7071135
3621.72,-0.705774666667
3623.649,-0.7053488
3625.577,-0.7063264
3627.506,-0.706715633333
3629.434,-0.7072846
3631.363,-0.7064835
3633.291,-0.7064798
3635.22,-0.706419266667
3637.148,-0.705662633333
3639.077,-0.7046697
3641.005,-0.705464166667
3642.934,-0.705960366667
3644.862,-0.705930633333
3646.791,-0.7060993
3648.719,-0.707385133333
3650.648,-0.708602733333
3652.576,-0.7066115
3654.505,-0.705485633333
3656.433,-0.705842333333
3658.362,-0.7064965
3660.29,-0.706615266667
3662.219,-0.705236033333
3664.147,-0.705158133333
3666.076,-0.706358266667
3668.004,-0.707527433333
3669.933,-0.7081087
3671.861,-0.707373633333
3673.79,-0.706857266667
3675.718,-0.706822433333
3677.647,-0.707645233333
3679.575,-0.7080359
3681.504,-0.7074943
3683.432,-0.707445833333
3685.361,-0.7077403
3687.289,-0.708433033333
3689.218,-0.709533333333
3691.146,-0.7103636
3693.075,-0.708380533333
3695.003,-0.7074126
3696.932,-0.706402333333
3698.86,-0.706071033333
3700.789,-0.706942133333
3702.717,-0.707691566667
3704.646,-0.7080223
3706.574,-0.708781933333
3708.503,-0.7095522
3710.431,-0.7101584
3712.36,-0.7086055
3714.288,-0.7076956
3716.217,-0.707610033333
3718.145,-0.7068787
3720.074,-0.7066366
3722.002,-0.707556733333
3723.931,-0.707694033333
3725.859,-0.708642
3727.788,-0.708405966667
3729.716,-0.7083376
3731.645,-0.7087418
3733.573,-0.710498066667
3735.502,-0.710513966667
3737.43,-0.7093689
3739.359,-0.710559933333
3741.287,-0.7107221
3743.216,-0.7088184
3745.144,-0.708391566667
3747.073,-0.7106587
3749.001,-0.7128729
3750.93,-0.7119571
3752.858,-0.7100237
3754.787,-0.709135933333
3756.715,-0.7095956
3758.644,-0.709343466667
3760.572,-0.7085217
3762.5,-0.707981666667
3764.429,-0.7074026
3766.358,-0.707771666667
3768.286,-0.708818933333
3770.215,-0.7089736
3772.143,-0.708677366667
3774.072,-0.708579066667
3776.0,-0.709054366667
3777.928,-0.7091288
3779.857,-0.708473433333
3781.786,-0.708408866667
3783.714,-0.7091558
3785.643,-0.709478933333
3787.571,-0.708934066667
3789.5,-0.708187833333
3791.428,-0.707828433333
3793.356,-0.707445
3795.285,-0.708296233333
3797.214,-0.7074671
3799.142,-0.708154333333
3801.071,-0.709280833333
3802.999,-0.708989733333
3804.927,-0.709101733333
3806.856,-0.7100362
3808.785,-0.709224366667
3810.713,-0.7088468
3812.642,-0.708195633333
3814.57,-0.709263133333
3816.499,-0.709318133333
3818.427,-0.708357666667
3820.355,-0.7085674
3822.284,-0.709051966667
3824.213,-0.708709566667
3826.141,-0.7085364
3828.07,-0.7081189
3829.998,-0.708757933333
3831.927,-0.710383
3833.855,-0.711815766667
3835.783,-0.711268733333
3837.712,-0.709772633333
3839.641,-0.711444066667
3841.569,-0.7113913
3843.498,-0.7100501
3845.426,-0.709964466667
3847.354,-0.709233033333
3849.283,-0.7088056
3851.211,-0.7103048
3853.14,-0.7123598
3855.069,-0.7092457
3856.997,-0.708965133333
3858.926,-0.709121633333
3860.854,-0.711341466667
3862.782,-0.710994266667
3864.711,-0.708484433333
3866.639,-0.708004166667
3868.568,-0.709729866667
3870.497,-0.709220233333
3872.425,-0.708958733333
3874.354,-0.7092084
3876.282,-0.709917133333
3878.21,-0.710051933333
3880.139,-0.709495233333
3882.067,-0.708634
3883.996,-0.708634333333
3885.925,-0.7087429
3887.853,-0.7092996
3889.781,-0.7097019
3891.71,-0.7098697
3893.638,-0.710054266667
3895.567,-0.7101178
3897.495,-0.710064566667
3899.424,-0.7095865
3901.353,-0.709628166667
3903.281,-0.7094366
3905.209,-0.7089989
3907.138,-0.709046533333
3909.066,-0.709028033333
3910.995,-0.709497666667
3912.924,-0.7101035
3914.852,-0.710266266667
3916.781,-0.709692966667
3918.709,-0.7090262
3920.637,-0.7079858
3922.566,-0.708995966667
3924.494,-0.7090483
3926.423,-0.7089024
3928.352,-0.709683266667
3930.28,-0.710318433333
3932.208,-0.7104432
3934.137,-0.709975233333
3936.065,-0.708963666667
3937.994,-0.709372333333
3939.922,-0.7093629
3941.851,-0.710478366667
3943.78,-0.710116933333
3945.708,-0.709562366667
3947.636,-0.709105133333
3949.565,-0.708224633333
3951.493,-0.709402066667
3953.422,-0.710254433333
3955.35,-0.709798733333
3957.279,-0.709535966667
3959.208,-0.709677866667
3961.136,-0.7096516
3963.064,-0.709089633333
3964.993,-0.709439566667
3966.921,-0.709972133333
3968.85,-0.7102313
3970.778,-0.710001666667
3972.707,-0.710483366667
3974.635,-0.709851633333
3976.564,-0.709389133333
3978.492,-0.710196133333
3980.421,-0.710579433333
3982.349,-0.710054366667
3984.278,-0.709367933333
3986.206,-0.709120666667
3988.135,-0.710101033333
3990.063,-0.710195666667
3991.992,-0.7094166
3993.92,-0.709160566667
3995.849,-0.709806433333
3997.777,-0.7099371
3999.706,-0.709083133333
4001.634,-0.7083372
4003.563,-0.709336733333
4005.491,-0.7099792
4007.42,-0.709685733333
4009.348,-0.709699133333
4011.277,-0.7093377
4013.205,-0.7087535
4015.134,-0.709513766667
4017.063,-0.709749966667
4018.991,-0.710134366667
4020.919,-0.709845933333
4022.848,-0.7102044
4024.776,-0.710305166667
4026.705,-0.7099744
4028.633,-0.709965233333
4030.562,-0.7100542
4032.49,-0.709147733333
4034.419,-0.709058333333
4036.347,-0.709678733333
4038.276,-0.709914833333
4040.204,-0.709664666667
4042.133,-0.7098155
4044.061,-0.709756066667
4045.99,-0.710462133333
4047.918,-0.710301066667
4049.847,-0.710069766667
4051.775,-0.709969266667
4053.704,-0.7094998
4055.632,-0.709759533333
4057.561,-0.7098253
4059.489,-0.7090174
4061.418,-0.709389433333
4063.346,-0.7094403
4065.275,-0.709506666667
4067.203,-0.710055466667
4069.132,-0.7101171
4071.06,-0.7103859
4072.989,-0.710245366667
4074.917,-0.709820866667
4076.846,-0.709364066667
4078.774,-0.7096086
4080.703,-0.7101471
4082.631,-0.709693933333
4084.56,-0.7100721
4086.488,-0.709876433333
4088.417,-0.710105633333
4090.345,-0.710306366667
4092.274,-0.7101522
4094.202,-0.709603833333
4096.131,-0.709475366667
4098.059,-0.709560666667
4099.988,-0.710220333333
4101.917,-0.7102538
4103.845,-0.709514533333
4105.773,-0.709743833333
4107.702,-0.710179033333
4109.63,-0.709849433333
4111.559,-0.7098459
4113.487,-0.709856733333
4115.416,-0.710079666667
4117.344,-0.710084933333
4119.273,-0.710553
4121.201,-0.710731766667
4123.13,-0.710291333333
4125.058,-0.711385666667
4126.987,-0.712050933333
4128.916,-0.710216866667
4130.844,-0.708621533333
4132.772,-0.709145266667
4134.701,-0.710319733333
4136.629,-0.7103483
4138.558,-0.710351766667
4140.486,-0.711061266667
4142.415,-0.710837833333
4144.343,-0.7104058
4146.272,-0.710672866667
4148.2,-0.711024666667
4150.129,-0.710788866667
4152.057,-0.709780633333
4153.986,-0.709754933333
4155.914,-0.710503733333
4157.843,-0.710892333333
4159.771,-0.7097944
4161.7,-0.7094073
4163.628,-0.7100006
4165.557,-0.7105297
4167.485,-0.711195
4169.414,-0.710676566667
4171.342,-0.7099988
4173.271,-0.7094043
4175.199,-0.709731166667
4177.128,-0.7103998
4179.056,-0.709221866667
4180.985,-0.709735333333
4182.913,-0.710205033333
4184.842,-0.709369833333
4186.77,-0.709436166667
4188.699,-0.710155033333
4190.627,-0.709731633333
4192.556,-0.709819566667
4194.484,-0.7102485
4196.413,-0.709970366667
4198.341,-0.7098551
4200.27,-0.7099631
4202.198,-0.709754466667
4204.127,-0.710380133333
4206.055,-0.710443566667
4207.984,-0.7102365
4209.912,-0.710595466667
4211.841,-0.711089166667
4213.769,-0.710449933333
4215.698,-0.709307933333
4217.626,-0.709953966667
4219.555,-0.711250666667
4221.483,-0.710805266667
4223.412,-0.7102755
4225.34,-0.710073266667
4227.269,-0.710406966667
4229.197,-0.710703966667
4231.125,-0.7104954
4233.054,-0.7093004
4234.983,-0.709925866667
4236.911,-0.7104238
4238.84,-0.710531666667
4240.768,-0.709450433333
4242.697,-0.7091988
4244.625,-0.710296466667
4246.554,-0.709768533333
4248.482,-0.7090186
4250.411,-0.709778866667
4252.339,-0.709768833333
4254.268,-0.709509833333
4256.196,-0.709848766667
4258.125,-0.710612033333
4260.053,-0.711367133333
4261.982,-0.7112604
4263.91,-0.7104697
4265.839,-0.709977266667
4267.767,-0.710031033333
4269.696,-0.7097313
4271.624,-0.709343566667
4273.553,-0.709841733333
4275.481,-0.7099357
4277.41,-0.709829766667
4279.338,-0.7102793
4281.267,-0.710355566667
4283.195,-0.709584433333
4285.124,-0.709597833333
4287.052,-0.708979866667
4288.98,-0.7086632
4290.909,-0.709041666667
4292.838,-0.709558533333
4294.766,-0.709385766667
4296.695,-0.7097579
4298.623,-0.710281833333
4300.552,-0.7099031
4302.48,-0.709510733333
4304.409,-0.7097624
4306.337,-0.7094322
4308.266,-0.709754033333
4310.194,-0.709842766667
4312.123,-0.709757766667
4314.051,-0.709973233333
4315.979,-0.7103413
4317.908,-0.709817966667
4319.836,-0.708895633333
4321.765,-0.7096892
4323.694,-0.710534566667
4325.622,-0.710598033333
4327.551,-0.7101897
4329.479,-0.710163366667
4331.408,-0.710413366667
4333.336,-0.709463
4335.265,-0.709019033333
4337.193,-0.709776833333
4339.122,-0.7102478
4341.05,-0.710246066667
4342.979,-0.709937333333
4344.907,-0.710196666667
4346.835,-0.709899366667
4348.764,-0.710114833333
4350.693,-0.7106003
4352.621,-0.7097614
4354.55,-0.709701866667
4356.478,-0.710357366667
4358.407,-0.711020633333
4360.335,-0.710453633333
4362.264,-0.710013633333
4364.192,-0.7096439
4366.121,-0.7099154
4368.049,-0.71029
4369.978,-0.7104763
4371.906,-0.709684233333
4373.834,-0.7090083
4375.763,-0.709569666667
4377.691,-0.709903366667
4379.62,-0.709996566667
4381.549,-0.710098866667
4383.477,-0.710038666667
4385.406,-0.7103768
4387.334,-0.710293366667
4389.263,-0.709834933333
4391.191,-0.710022633333
4393.12,-0.709752933333
4395.048,-0.709069266667
4396.977,-0.7095764
4398.905,-0.710725766667
4400.833,-0.7117471
4402.762,-0.7100809
4404.69,-0.7088641
4406.619,-0.709358766667
4408.547,-0.710479433333
4410.476,-0.710325666667
4412.405,-0.7098852
4414.333,-0.7096763
4416.262,-0.709135033333
4418.19,-0.7098854
4420.119,-0.710469966667
4422.047,-0.710259133333
4423.976,-0.7097415
4425.904,-0.709198266667
4427.833,-0.709627766667
4429.761,-0.709180266667
4431.689,-0.709100033333
4433.618,-0.709540266667
4435.546,-0.7093138
4437.475,-0.708921433333
4439.403,-0.7090111
4441.332,-0.7100244
4443.261,-0.709760366667
4445.189,-0.7089553
4447.118,-0.708119166667
4449.046,-0.709095566667
4450.975,-0.708756966667
4452.903,-0.7077104
4454.832,-0.7093866
4456.76,-0.711324266667
4458.688,-0.7113504
4460.617,-0.7103354
4462.545,-0.710034433333
4464.474,-0.7101477
4466.402,-0.709707033333
4468.331,-0.709253466667
4470.26,-0.7086832
4472.188,-0.7091315
4474.117,-0.7105328
4476.045,-0.7102426
4477.974,-0.709444333333
4479.902,-0.709131533333
4481.831,-0.708968833333
4483.759,-0.709235866667
4485.688,-0.708412966667
4487.616,-0.707649
4489.544,-0.7080499
4491.473,-0.708505666667
4493.401,-0.707904766667
4495.33,-0.7080071
4497.258,-0.708967666667
4499.187,-0.709319166667
4501.116,-0.709053766667
4503.044,-0.7092998
4504.973,-0.709208533333
4506.901,-0.708306733333
4508.83,-0.707893
4510.758,-0.7077589
4512.687,-0.708219666667
4514.615,-0.707967033333
4516.543,-0.707876466667
4518.472,-0.709334033333
4520.4,-0.7094254
4522.329,-0.708929266667
4524.257,-0.709500233333
4526.186,-0.710527066667
4528.114,-0.709622466667
4530.043,-0.709095333333
4531.972,-0.7089732
4533.9,-0.710364533333
4535.829,-0.7108914
4537.757,-0.7090882
4539.686,-0.708041833333
4541.614,-0.708291466667
4543.542,-0.7090651
4545.471,-0.709450933333
4547.399,-0.709438033333
4549.328,-0.7100204
4551.256,-0.7097562
4553.185,-0.710215
4555.113,-0.710410066667
4557.042,-0.7092637
4558.971,-0.709179233333
4560.899,-0.7092905
4562.828,-0.707808
4564.756,-0.707917833333
4566.685,-0.709201033333
4568.613,-0.7096686
4570.542,-0.708979866667
4572.47,-0.708073033333
4574.398,-0.7082421
4576.327,-0.7093851
4578.255,-0.709870566667
4580.184,-0.709388666667
4582.112,-0.709636966667
4584.041,-0.7102309
4585.969,-0.710733733333
4587.898,-0.710529
4589.827,-0.709305366667
4591.755,-0.707987566667
4593.684,-0.7079137
4595.612,-0.708160733333
4597.541,-0.708980633333
4599.469,-0.709580633333
4601.397,-0.7093947
4603.326,-0.709747733333
4605.254,-0.7099279
4607.183,-0.7089881
4609.111,-0.708154133333
4611.04,-0.707941866667
4612.968,-0.708336666667
4614.897,-0.709499533333
4616.825,-0.710141733333
4618.754,-0.709947233333
4620.683,-0.7092774
4622.611,-0.7091772
4624.54,-0.709061833333
4626.468,-0.7090889
4628.396,-0.710108933333
4630.325,-0.709623833333
4632.253,-0.709753533333
4634.182,-0.710182633333
4636.11,-0.7100438
4638.039,-0.7098134
4639.967,-0.7092558
4641.896,-0.708606666667
4643.824,-0.708474266667
4645.753,-0.707997166667
4647.682,-0.707711233333
4649.61,-0.708628
4651.539,-0.710123633333
4653.467,-0.710151133333
4655.396,-0.708966966667
4657.324,-0.708638033333
4659.252,-0.708108766667
4661.181,-0.708531733333
4663.109,-0.709195433333
4665.038,-0.708131266667
4666.966,-0.707186633333
4668.895,-0.7077471
4670.823,-0.7088316
4672.752,-0.709663066667
4674.68,-0.709501833333
4676.609,-0.709537533333
4678.538,-0.708726766667
4680.466,-0.7082869
4682.395,-0.7094798
4684.323,-0.710234033333
4686.251,-0.710972666667
4688.18,-0.710737733333
4690.108,-0.709759566667
4692.037,-0.708988466667
4693.965,-0.709148666667
4695.894,-0.708725633333
4697.822,-0.7076483
4699.751,-0.707528933333
4701.679,-0.708162833333
4703.608,-0.708721666667
4705.536,-0.709520833333
4707.465,-0.7096142
4709.394,-0.709541933333
4711.322,-0.709754066667
4713.25,-0.7089627
4715.179,-0.707821833333
4717.107,-0.707209
4719.036,-0.706494533333
4720.964,-0.707787533333
4722.893,-0.7092173
4724.821,-0.709211
4726.75,-0.708781033333
4728.678,-0.708085933333
4730.607,-0.707546566667
4732.535,-0.708442466667
4734.464,-0.708925166667
4736.392,-0.707668333333
4738.321,-0.7086708
4740.25,-0.709376533333
4742.178,-0.7086662
4744.106,-0.7071989
4746.035,-0.706738933333
4747.963,-0.707821633333
4749.892,-0.707486133333
4751.82,-0.7070972
4753.749,-0.7068751
4755.677,-0.706855333333
4757.606,-0.7075487
4759.534,-0.707238633333
4761.463,-0.7078131
4763.391,-0.708063566667
4765.32,-0.706745133333
4767.249,-0.7063324
4769.177,-0.706402633333
4771.105,-0.707156566667
4773.034,-0.706990933333
4774.962,-0.707339033333
4776.891,-0.7071251
4778.819,-0.706176
4780.748,-0.706238333333
4782.676,-0.7068557
4784.605,-0.707852533333
4786.533,-0.7069698
4788.462,-0.705875833333
4790.39,-0.7054146
4792.319,-0.705971233333
4794.247,-0.707146566667
4796.176,-0.707724133333
4798.104,-0.708265466667
4800.033,-0.7093662
4801.961,-0.7082264
4803.89,-0.707135366667
4805.818,-0.7066129
4807.747,-0.706527133333
4809.675,-0.706955966667
4811.604,-0.707509566667
4813.532,-0.7069978
4815.461,-0.707022733333
4817.389,-0.707494666667
4819.318,-0.707878133333
4821.246,-0.706986066667
4823.175,-0.708038433333
4825.103,-0.708849633333
4827.032,-0.707811833333
4828.96,-0.707621966667
4830.889,-0.707658666667
4832.817,-0.708280133333
4834.746,-0.7078929
4836.674,-0.706621233333
4838.603,-0.705868633333
4840.531,-0.705392433333
4842.46,-0.705938266667
4844.388,-0.7066583
4846.317,-0.706812633333
4848.245,-0.706573366667
4850.174,-0.706384333333
4852.102,-0.7064264
4854.031,-0.707084766667
4855.959,-0.707396966667
4857.888,-0.707318133333
4859.816,-0.7070793
4861.745,-0.7070921
4863.673,-0.7060707
4865.602,-0.706774566667
4867.53,-0.708482366667
4869.458,-0.707300433333
4871.387,-0.706517433333
4873.316,-0.707949033333
4875.244,-0.708957466667
4877.173,-0.708380433333
4879.101,-0.707168633333
4881.03,-0.706283766667
4882.958,-0.7061723
4884.887,-0.706088033333
4886.815,-0.706819566667
4888.744,-0.707302766667
4890.672,-0.706457633333
4892.601,-0.706793633333
4894.529,-0.707423833333
4896.458,-0.7069586
4898.386,-0.707333933333
4900.315,-0.706727766667
4902.243,-0.704521366667
4904.172,-0.7052113
4906.1,-0.707264266667
4908.029,-0.707288833333
4909.957,-0.7065942
4911.886,-0.7067223
4913.814,-0.7069013
4915.743,-0.706270533333
4917.671,-0.705363833333
4919.6,-0.705457633333
4921.528,-0.705307833333
4923.457,-0.704502266667
4925.385,-0.704785033333
4927.313,-0.7054458
4929.242,-0.705824766667
4931.171,-0.705347566667
4933.099,-0.703535233333
4935.028,-0.7034203
4936.956,-0.705310466667
4938.885,-0.706370533333
4940.813,-0.706179433333
4942.742,-0.706283466667
4944.67,-0.7048312
4946.599,-0.7051721
4948.527,-0.7056892
4950.456,-0.7057554
4952.384,-0.706223133333
4954.313,-0.706149133333
4956.241,-0.706452466667
4958.169,-0.706931633333
4960.098,-0.706559766667
4962.027,-0.706271
4963.955,-0.706093533333
4965.884,-0.705775333333
4967.812,-0.7056258
4969.741,-0.706393366667
4971.669,-0.705610333333
4973.598,-0.703205366667
4975.526,-0.702910933333
4977.455,-0.704801733333
4979.383,-0.7060085
4981.312,-0.705136966667
4983.24,-0.705446533333
4985.168,-0.7065764
4987.097,-0.706884333333
4989.025,-0.7079859
4990.954,-0.707307166667
4992.883,-0.706128033333
4994.811,-0.705140633333
4996.74,-0.705094066667
4998.668,-0.706087066667
5000.597,-0.705563166667
5002.525,-0.704690066667
5004.454,-0.705175666667
5006.382,-0.705479166667
5008.311,-0.7058827
5010.239,-0.704781
5012.167,-0.704530766667
5014.096,-0.705762766667
5016.024,-0.706035666667
5017.953,-0.706552733333
5019.882,-0.705606
5021.81,-0.704617133333
5023.739,-0.7053441
5025.667,-0.705663266667
5027.596,-0.705212433333
5029.524,-0.705469533333
5031.453,-0.7066733
5033.381,-0.7064514
5035.31,-0.705986
5037.238,-0.7049211
5039.167,-0.705755466667
5041.095,-0.707601566667
5043.023,-0.706819366667
5044.952,-0.7056171
5046.88,-0.705359133333
5048.809,-0.704562966667
5050.738,-0.7050371
5052.666,-0.704355133333
5054.595,-0.704792133333
5056.523,-0.704688
5058.452,-0.704780566667
5060.38,-0.704938266667
5062.309,-0.704531066667
5064.237,-0.704043266667
5066.166,-0.704202333333
5068.094,-0.7037703
5070.022,-0.704918566667
5071.951,-0.705397766667
5073.879,-0.705417566667
5075.808,-0.705262733333
5077.736,-0.7048558
5079.665,-0.7044101
5081.594,-0.704997333333
5083.522,-0.7055888
5085.451,-0.704834
5087.379,-0.7033449
5089.308,-0.704069866667
5091.236,-0.704900166667
5093.165,-0.704012633333
5095.093,-0.703344966667
5097.021,-0.7036774
5098.95,-0.7047667
5100.878,-0.705075433333
5102.807,-0.705063366667
5104.735,-0.7045129
5106.664,-0.704730333333
5108.593,-0.705931066667
5110.521,-0.705989233333
5112.45,-0.7051036
5114.378,-0.705020333333
5116.307,-0.7049411
5118.235,-0.703900433333
5120.164,-0.704071566667
5122.092,-0.704838133333
5124.021,-0.703791666667
5125.949,-0.703676433333
5127.877,-0.7044278
5129.806,-0.704283333333
5131.734,-0.705835866667
5133.663,-0.7056035
5135.591,-0.704804133333
5137.52,-0.704059933333
5139.449,-0.703878766667
5141.377,-0.704008066667
5143.306,-0.7040573
5145.234,-0.704530533333
5147.163,-0.705074333333
5149.091,-0.7036322
5151.02,-0.7023159
5152.948,-0.701439333333
5154.876,-0.7015541
5156.805,-0.703631833333
5158.733,-0.704780566667
5160.662,-0.703338133333
5162.59,-0.703984266667
5164.519,-0.703699033333
5166.447,-0.7024886
5168.376,-0.7023113
5170.305,-0.7034
5172.233,-0.7039527
5174.162,-0.7039061
5176.09,-0.702777766667
5178.019,-0.702647
5179.947,-0.7038453
5181.875,-0.704462233333
5183.804,-0.7049998
5185.732,-0.705198933333
5187.661,-0.705126033333
5189.589,-0.705880533333
5191.518,-0.705913766667
5193.446,-0.706058566667
5195.375,-0.704112566667
5197.304,-0.7032185
5199.232,-0.7044229
5201.161,-0.7047966
5203.089,-0.702802133333
5205.018,-0.7028388
5206.946,-0.703085833333
5208.875,-0.704073133333
5210.803,-0.7036984
5212.731,-0.701599766667
5214.66,-0.699966933333
5216.588,-0.7012655
5218.517,-0.7032225
5220.445,-0.702936233333
5222.374,-0.7011832
5224.302,-0.7002857
5226.231,-0.7005878
5228.16,-0.7021609
5230.088,-0.702914566667
5232.017,-0.7034913
5233.945,-0.7030898
5235.874,-0.702619733333
5237.802,-0.702923666667
5239.73,-0.703037066667
5241.659,-0.701981333333
5243.587,-0.7014533
5245.516,-0.701047633333
5247.444,-0.7009669
5249.373,-0.701742
5251.301,-0.702850466667
5253.23,-0.702024833333
5255.158,-0.701904266667
5257.087,-0.702597866667
5259.016,-0.702263333333
5260.944,-0.702441366667
5262.873,-0.702901433333
5264.801,-0.701022266667
5266.729,-0.700730633333
5268.658,-0.7009822
5270.586,-0.7017497
5272.515,-0.701527233333
5274.443,-0.7020392
5276.372,-0.704059933333
5278.3,-0.704909866667
5280.229,-0.703350933333
5282.157,-0.703688766667
5284.086,-0.704609766667
5286.014,-0.7034429
5287.943,-0.702950266667
5289.872,-0.703176433333
5291.8,-0.701737533333
5293.729,-0.7012369
5295.657,-0.701011833333
5297.585,-0.700940966667
5299.514,-0.702180733333
5301.442,-0.704529133333
5303.371,-0.7056056
5305.299,-0.7054122
5307.228,-0.7020651
5309.156,-0.6998728
5311.085,-0.700861933333
5313.013,-0.701880566667
5314.942,-0.701503633333
5316.871,-0.701213266667
5318.799,-0.7005277
5320.728,-0.7019817
5322.656,-0.702575
5324.584,-0.701753833333
5326.513,-0.7007137
5328.441,-0.7004026
5330.37,-0.700729733333
5332.298,-0.701145933333
5334.227,-0.701985866667
5336.155,-0.703376533333
5338.084,-0.7010673
5340.012,-0.699880133333
5341.941,-0.7017631
5343.869,-0.7025647
5345.798,-0.699938866667
5347.727,-0.701152733333
5349.655,-0.7022247
5351.583,-0.700826833333
5353.512,-0.697864133333
5355.44,-0.697548833333
5357.369,-0.7003832
5359.297,-0.702332033333
5361.226,-0.7018104
5363.154,-0.701692633333
5365.083,-0.701014733333
5367.011,-0.701045533333
5368.94,-0.7012542
5370.868,-0.701609866667
5372.797,-0.700923566667
5374.725,-0.701434566667
5376.654,-0.7012946
5378.583,-0.700789066667
5380.511,-0.7008941
5382.439,-0.700804033333
5384.368,-0.698451433333
5386.296,-0.6978023
5388.225,-0.699252733333
5390.153,-0.701071866667
5392.082,-0.7004246
5394.01,-0.7006428
5395.939,-0.7002363
5397.867,-0.700846466667
5399.796,-0.701177566667
5401.724,-0.7016861
5403.653,-0.699632966667
5405.582,-0.699551966667
5407.51,-0.699724466667
5409.438,-0.700080966667
5411.367,-0.698914366667
5413.295,-0.697327266667
5415.224,-0.697726766667
5417.152,-0.699220366667
5419.081,-0.699376833333
5421.009,-0.699841433333
5422.938,-0.6997493
5424.866,-0.699507266667
5426.795,-0.6985906
5428.723,-0.698786833333
5430.652,-0.6982903
5432.58,-0.698359633333
5434.509,-0.696851233333
5436.438,-0.6963905
5438.366,-0.697551966667
5440.294,-0.699942433333
5442.223,-0.699725033333
5444.151,-0.699881766667
5446.08,-0.7003674
5448.008,-0.700442566667
5449.937,-0.699567566667
5451.865,-0.6978488
5453.794,-0.698084266667
5455.722,-0.699604066667
5457.651,-0.699370333333
5459.579,-0.699451766667
5461.508,-0.699451133333
5463.436,-0.698173733333
5465.365,-0.698481133333
5467.293,-0.6995304
5469.222,-0.698210233333
5471.15,-0.6967883
5473.079,-0.697380666667
5475.007,-0.6983757
5476.936,-0.698657966667
5478.864,-0.699293866667
5480.793,-0.698494766667
5482.721,-0.6994924
5484.65,-0.699078066667
5486.578,-0.698731966667
5488.507,-0.698499233333
5490.435,-0.6978323
5492.364,-0.6963183
5494.292,-0.695911966667
5496.221,-0.695867366667
5498.149,-0.6972439
5500.078,-0.698088133333
5502.006,-0.6999695
5503.935,-0.6988616
5505.863,-0.697908066667
5507.792,-0.6971136
5509.72,-0.696486066667
5511.649,-0.696318333333
5513.577,-0.6977628
5515.506,-0.698451133333
5517.434,-0.697700966667
5519.363,-0.6951877
5521.291,-0.694331166667
5523.22,-0.6959622
5525.148,-0.698113666667
5527.077,-0.6989577
5529.005,-0.6997195
5530.934,-0.6975809
5532.862,-0.695090666667
5534.791,-0.696414766667
5536.719,-0.6980813
5538.648,-0.6958342
5540.576,-0.6949639
5542.505,-0.6954763
5544.433,-0.696487866667
5546.362,-0.696572933333
5548.29,-0.695285533333
5550.219,-0.695163633333
5552.147,-0.696098833333
5554.076,-0.694491333333
5556.004,-0.6941023
5557.933,-0.6960094
5559.861,-0.696844033333
5561.79,-0.6934107
5563.718,-0.6927226
5565.646,-0.695412766667
5567.575,-0.697455433333
5569.504,-0.695422466667
5571.432,-0.6936138
5573.361,-0.694379066667
5575.289,-0.695695533333
5577.218,-0.695101866667
5579.146,-0.696178566667
5581.075,-0.696403433333
5583.003,-0.6950051
5584.932,-0.693783366667
5586.86,-0.694843633333
5588.789,-0.6950174
5590.717,-0.695311333333
5592.646,-0.694810666667
5594.574,-0.694689733333
5596.502,-0.694824
5598.431,-0.694763033333
5600.36,-0.694764233333
5602.288,-0.6960604
5604.217,-0.696581466667
5606.145,-0.695958566667
5608.074,-0.695774266667
5610.002,-0.696446766667
5611.931,-0.6945586
5613.859,-0.694448033333
5615.788,-0.694417833333
5617.716,-0.694235433333
5619.645,-0.693811166667
5621.573,-0.693598566667
5623.501,-0.692904066667
5625.43,-0.6944271
5627.358,-0.694603366667
5629.287,-0.692874
5631.216,-0.691638566667
5633.144,-0.692587933333
5635.073,-0.6927
5637.001,-0.693120133333
5638.93,-0.692109233333
5640.858,-0.691839166667
5642.787,-0.690913566667
5644.715,-0.691615833333
5646.644,-0.6931788
5648.572,-0.692753766667
5650.5,-0.6906621
5652.429,-0.6899904
5654.357,-0.690498133333
5656.286,-0.6928021
5658.215,-0.692536233333
5660.143,-0.692079166667
5662.072,-0.691591466667
5664.0,-0.691019833333
5665.929,-0.689831066667
5667.857,-0.690288966667
5669.786,-0.691317766667
5671.714,-0.6921871
5673.643,-0.690700866667
5675.571,-0.690847966667
5677.5,-0.691001133333
5679.428,-0.6914343
5681.356,-0.691236333333
5683.285,-0.690753133333
5685.213,-0.690079933333
5687.142,-0.6885
5689.071,-0.689007466667
5690.999,-0.6912564
5692.928,-0.690175933333
5694.856,-0.689337133333
5696.785,-0.6879254
5698.713,-0.688522666667
5700.642,-0.6889888
5702.57,-0.688459233333
5704.499,-0.6874885
5706.427,-0.6880251
5708.355,-0.687485266667
5710.284,-0.6866659
5712.212,-0.6864041
5714.141,-0.686642133333
5716.069,-0.6860071
5717.998,-0.685224933333
5719.927,-0.684117966667
5721.855,-0.685171866667
5723.784,-0.6859231
5725.712,-0.685811566667
5727.641,-0.6851665
5729.569,-0.685254133333
5731.498,-0.686581166667
5733.426,-0.687551433333
5735.354,-0.686976
5737.283,-0.686501233333
5739.211,-0.6871943
5741.14,-0.688311466667
5743.068,-0.6874577
5744.997,-0.6866829
5746.926,-0.685693366667
5748.854,-0.685366133333
5750.783,-0.684783033333
5752.711,-0.686620733333
5754.64,-0.6869038
5756.568,-0.6851485
5758.497,-0.684605566667
5760.425,-0.685003666667
5762.354,-0.6837735
5764.282,-0.6827257
5766.21,-0.6826876
5768.139,-0.683074566667
5770.067,-0.6830317
5771.996,-0.683986666667
5773.924,-0.683176133333
5775.853,-0.6827927
5777.782,-0.6817316
5779.71,-0.682037566667
5781.639,-0.683369766667
5783.567,-0.685529533333
5785.496,-0.685056
5787.424,-0.6832499
5789.353,-0.6811337
5791.281,-0.681854433333
5793.209,-0.682405266667
5795.138,-0.681597233333
5797.066,-0.682031933333
5798.995,-0.684074266667
5800.923,-0.6836313
5802.852,-0.6833369
5804.78,-0.681684533333
5806.709,-0.6819958
5808.638,-0.681428033333
5810.566,-0.681376833333
5812.495,-0.681686633333
5814.423,-0.682341033333
5816.352,-0.680459733333
5818.28,-0.679150866667
5820.208,-0.679991533333
5822.137,-0.679858766667
5824.065,-0.677642466667
5825.994,-0.677113833333
5827.922,-0.677229533333
5829.851,-0.678780433333
5831.779,-0.677819233333
5833.708,-0.678635133333
5835.637,-0.679982366667
5837.565,-0.6797347
5839.494,-0.678261766667
5841.422,-0.678415166667
5843.351,-0.6789727
5845.279,-0.678671466667
5847.208,-0.677583733333
5849.136,-0.677525733333
5851.064,-0.6763239
5852.993,-0.6767411
5854.921,-0.677577
5856.85,-0.6773773
5858.778,-0.675458966667
5860.707,-0.6754562
5862.635,-0.675407533333
5864.564,-0.6750728
5866.493,-0.6769838
5868.421,-0.6792756
5870.35,-0.677242766667
5872.278,-0.677086266667
5874.207,-0.675912866667
5876.135,-0.674009133333
5878.063,-0.673010533333
5879.992,-0.675015233333
5881.92,-0.6776145
5883.849,-0.677940466667
5885.777,-0.6761925
5887.706,-0.6752856
5889.634,-0.674266133333
5891.563,-0.674688333333
5893.491,-0.673189166667
5895.42,-0.6724727
5897.349,-0.6730083
5899.277,-0.6737194
5901.206,-0.672818533333
5903.134,-0.671870333333
5905.063,-0.6696738
5906.991,-0.669399166667
5908.919,-0.669488966667
5910.848,-0.671939133333
5912.776,-0.6721165
5914.705,-0.670042933333
5916.633,-0.668378766667
5918.562,-0.669629066667
5920.49,-0.670124
5922.419,-0.670437133333
5924.347,-0.671108133333
5926.276,-0.671466066667
5928.205,-0.669665166667
5930.133,-0.6684466
5932.062,-0.6674532
5933.99,-0.668633
5935.918,-0.669648366667
5937.847,-0.670539933333
5939.775,-0.6689727
5941.704,-0.666608366667
5943.632,-0.664138933333
5945.561,-0.665355333333
5947.489,-0.6665995
5949.418,-0.666924233333
5951.346,-0.666970266667
5953.275,-0.6678437
5955.204,-0.666687233333
5957.132,-0.665317233333
5959.061,-0.664913633333
5960.989,-0.6656308
5962.917,-0.665198833333
5964.846,-0.6645489
5966.774,-0.665013966667
5968.703,-0.665950033333
5970.631,-0.6630304
5972.56,-0.662594333333
5974.488,-0.661893566667
5976.417,-0.660682233333
5978.345,-0.66247
5980.274,-0.665455033333
5982.202,-0.664038433333
5984.131,-0.663100266667
5986.06,-0.662369733333
5987.988,-0.6620935
5989.917,-0.662192666667
5991.845,-0.659610966667
5993.773,-0.657362866667
5995.702,-0.657966433333
5997.63,-0.660592866667
5999.559,-0.661531466667
6001.487,-0.660377066667
6003.416,-0.6610423
6005.344,-0.6599392
6007.273,-0.659228433333
6009.201,-0.659552633333
6011.13,-0.660282233333
6013.058,-0.658907066667
6014.987,-0.655919033333
6016.916,-0.65566
6018.844,-0.656199566667
6020.772,-0.656030233333
6022.701,-0.656198566667
6024.629,-0.6542259
6026.558,-0.653010866667
6028.486,-0.650705633333
6030.415,-0.652251633333
6032.343,-0.654228333333
6034.272,-0.6545047
6036.2,-0.6537724
6038.129,-0.653012533333
6040.057,-0.6523137
6041.986,-0.652646166667
6043.915,-0.652750866667
6045.843,-0.6538338
6047.771,-0.6550215
6049.7,-0.654500166667
6051.628,-0.6537775
6053.557,-0.652208966667
6055.485,-0.647411366667
6057.414,-0.646985133333
6059.342,-0.6492056
6061.271,-0.652137133333
6063.199,-0.6504923
6065.128,-0.649515266667
6067.056,-0.648424866667
6068.985,-0.6499272
6070.913,-0.6492744
6072.842,-0.646223233333
6074.771,-0.6447572
6076.699,-0.646766133333
6078.627,-0.648817133333
6080.556,-0.6478543
6082.484,-0.647099666667
6084.413,-0.6471952
6086.341,-0.646173266667
6088.27,-0.647598666667
6090.198,-0.6473475
6092.127,-0.6459019
6094.055,-0.641177233333
6095.984,-0.640917266667
6097.912,-0.641316066667
6099.841,-0.642715633333
6101.769,-0.642020133333
6103.698,-0.640245133333
6105.626,-0.639049933333
6107.555,-0.639674033333
6109.483,-0.6383055
6111.412,-0.639501066667
6113.34,-0.6395259
6115.269,-0.638871533333
6117.197,-0.637421966667
6119.126,-0.636424266667
6121.054,-0.636138533333
6122.983,-0.637620666667
6124.911,-0.637164466667
6126.84,-0.638367666667
6128.768,-0.637067433333
6130.697,-0.6361107
6132.625,-0.635649933333
6134.554,-0.636502266667
6136.482,-0.6329995
6138.411,-0.632281633333
6140.339,-0.633877833333
6142.268,-0.6348248
6144.196,-0.635199166667
6146.125,-0.635839466667
6148.053,-0.6350649
6149.982,-0.633118833333
6151.91,-0.6301954
6153.839,-0.630049833333
6155.767,-0.630329366667
6157.696,-0.6296466
6159.624,-0.628265366667
6161.553,-0.627732966667
6163.481,-0.6253092
6165.41,-0.626680733333
6167.338,-0.6281786
6169.267,-0.627818433333
6171.195,-0.626023566667
6173.124,-0.624953566667
6175.052,-0.623891033333
6176.981,-0.6259589
6178.909,-0.625794433333
6180.838,-0.624134333333
6182.766,-0.623872166667
6184.695,-0.623503766667
6186.623,-0.6227203
6188.552,-0.6241136
6190.48,-0.623524966667
6192.409,-0.6214984
6194.337,-0.619916966667
6196.266,-0.6234016
6198.194,-0.621535066667
6200.123,-0.6190177
6202.051,-0.6185986
6203.979,-0.618568
6205.908,-0.617200466667
6207.837,-0.6168048
6209.765,-0.6164445
6211.694,-0.6166345
6213.622,-0.6145852
6215.551,-0.612643133333
6217.479,-0.6120535
6219.408,-0.614068666667
6221.336,-0.615703133333
6223.265,-0.614866433333
6225.193,-0.611686966667
6227.122,-0.609636466667
6229.05,-0.609087633333
6230.979,-0.609219866667
6232.907,-0.6081175
6234.835,-0.609022366667
6236.764,-0.606949066667
6238.693,-0.606481733333
6240.621,-0.607023066667
6242.55,-0.6082674
6244.478,-0.607100633333
6246.407,-0.606018166667
6248.335,-0.604674266667
6250.264,-0.606372666667
6252.192,-0.606294533333
6254.121,-0.602670033333
6256.049,-0.599777433333
6257.978,-0.6014724
6259.906,-0.599382633333
6261.834,-0.600021866667
6263.763,-0.5980303
6265.691,-0.5963956
6267.62,-0.599355133333
6269.549,-0.601265566667
6271.477,-0.600804933333
6273.406,-0.598918166667
6275.334,-0.596316466667
6277.263,-0.595366733333
6279.191,-0.593063833333
6281.12,-0.592015033333
6283.048,-0.593437233333
6284.977,-0.5955226
6286.905,-0.5933539
6288.833,-0.592502
6290.762,-0.590348633333
6292.69,-0.589550833333
6294.619,-0.590455433333
6296.548,-0.591424233333
6298.476,-0.589217566667
6300.405,-0.588210166667
6302.333,-0.586557766667
6304.262,-0.585544033333
6306.19,-0.5850038
6308.119,-0.585543433333
6310.047,-0.586006433333
6311.976,-0.583730166667
6313.904,-0.580083666667
6315.833,-0.582364433333
6317.761,-0.583906966667
6319.689,-0.5855063
6321.618,-0.583259533333
6323.546,-0.5808868
6325.475,-0.578910533333
6327.404,-0.577476233333
6329.332,-0.576351533333
6331.261,-0.5777857
6333.189,-0.576724166667
6335.118,-0.575093033333
6337.046,-0.574615933333
6338.975,-0.574239333333
6340.903,-0.5685958
6342.832,-0.566632366667
6344.76,-0.566514266667
6346.688,-0.5689552
6348.617,-0.569601433333
6350.545,-0.569033633333
6352.474,-0.5695862
6354.402,-0.5696735
6356.331,-0.5688291
6358.26,-0.568275766667
6360.188,-0.5666805
6362.117,-0.565800933333
6364.045,-0.5640835
6365.974,-0.568554633333
6367.902,-0.569365133333
6369.831,-0.564719333333
6371.759,-0.5612768
6373.688,-0.559152466667
6375.616,-0.557815166667
6377.544,-0.5574404
6379.473,-0.558683433333
6381.401,-0.557269033333
6383.33,-0.552718133333
6385.259,-0.554099733333
6387.187,-0.556217166667
6389.116,-0.555601066667
6391.044,-0.549664166667
6392.973,-0.5486427
6394.901,-0.549331533333
6396.83,-0.5483209
6398.758,-0.547101866667
6400.687,-0.547527466667
6402.615,-0.548993133333
6404.543,-0.5501805
6406.472,-0.546625633333
6408.4,-0.544510166667
6410.329,-0.543385166667
6412.257,-0.5410745
6414.186,-0.543532766667
6416.115,-0.547069766667
6418.043,-0.542917033333
6419.972,-0.539633033333
6421.9,-0.5399309
6423.829,-0.540719333333
6425.757,-0.537352433333
6427.686,-0.5365308
6429.614,-0.535767666667
6431.542,-0.5351515
6433.471,-0.532694566667
6435.399,-0.533711066667
6437.328,-0.535134266667
6439.256,-0.534307666667
6441.185,-0.530525766667
6443.113,-0.525989866667
6445.042,-0.524045466667
6446.971,-0.5271244
6448.899,-0.5254984
6450.828,-0.525276966667
6452.756,-0.524474933333
6454.685,-0.524058266667
6456.613,-0.5240927
6458.542,-0.522530566667
6460.47,-0.521073066667
6462.398,-0.5194628
6464.327,-0.5176719
6466.255,-0.516500433333
6468.184,-0.513014466667
6470.112,-0.513898066667
6472.041,-0.516179633333
6473.97,-0.51407
6475.898,-0.510675933333
6477.827,-0.509344433333
6479.755,-0.505832566667
6481.684,-0.5055789
6483.612,-0.5063431
6485.541,-0.508357933333
6487.469,-0.508793433333
6489.397,-0.507504366667
6491.326,-0.505891533333
6493.254,-0.504283833333
6495.183,-0.5026493
6497.111,-0.501001433333
6499.04,-0.4993808
6500.968,-0.5018099
6502.897,-0.5023692
6504.826,-0.5009252
6506.754,-0.495644133333
6508.683,-0.4913373
6510.611,-0.489717266667
6512.54,-0.490233966667
6514.468,-0.490540033333
6516.396,-0.4922466
6518.325,-0.492497033333
6520.253,-0.4912219
6522.182,-0.4852363
6524.11,-0.481884033333
6526.039,-0.481294766667
6527.967,-0.481443466667
6529.896,-0.481842433333
6531.824,-0.482994
6533.753,-0.4812536
6535.682,-0.479993966667
6537.61,-0.479340266667
6539.539,-0.476313533333
6541.467,-0.477356966667
6543.396,-0.479060266667
6545.324,-0.478471366667
6547.252,-0.476201266667
6549.181,-0.4720799
6551.109,-0.471267966667
6553.038,-0.470287066667
6554.966,-0.469009266667
6556.895,-0.464270966667
6558.823,-0.4630018
6560.752,-0.462735066667
6562.68,-0.464293366667
6564.609,-0.464250766667
6566.538,-0.4629022
6568.466,-0.461188566667
6570.395,-0.461539133333
6572.323,-0.463522966667
6574.251,-0.462501833333
6576.18,-0.4569696
6578.108,-0.455845566667
6580.037,-0.456479033333
6581.965,-0.4565244
6583.894,-0.4520956
6585.822,-0.449306766667
6587.751,-0.446172
6589.679,-0.4467991
6591.608,-0.446590066667
6593.537,-0.4450767
6595.465,-0.444150333333
6597.394,-0.443463766667
6599.322,-0.442070933333
6601.25,-0.4432038
6603.179,-0.442857633333
6605.107,-0.439234166667
6607.036,-0.437715333333
6608.964,-0.4382258
6610.893,-0.434711833333
6612.821,-0.431131366667
6614.75,-0.4277505
6616.678,-0.428222966667
6618.607,-0.4293313
6620.535,-0.4306643
6622.464,-0.428620433333
6624.393,-0.426148866667
6626.321,-0.425540233333
6628.25,-0.4231329
6630.178,-0.421371
6632.106,-0.423683833333
6634.035,-0.4240935
6635.963,-0.423011666667
6637.892,-0.419726533333
6639.82,-0.4193052
6641.749,-0.419047666667
6643.677,-0.413833233333
6645.606,-0.407549533333
6647.534,-0.405639666667
6649.463,-0.4047791
6651.391,-0.405085233333
6653.32,-0.4047254
6655.249,-0.4071536
6657.177,-0.404552
6659.105,-0.4018554
6661.034,-0.400607066667
6662.962,-0.3995266
6664.891,-0.394999133333
6666.819,-0.397097133333
6668.748,-0.3984283
6670.676,-0.396861366667
6672.605,-0.392637733333
6674.533,-0.391409866667
6676.462,-0.388881566667
6678.39,-0.388164033333
6680.319,-0.386729233333
6682.248,-0.386732033333
6684.176,-0.3872628
6686.104,-0.388670433333
6688.033,-0.387873666667
6689.961,-0.386703233333
6691.89,-0.382115766667
6693.818,-0.377995433333
6695.747,-0.3767451
6697.675,-0.3743723
6699.604,-0.3715451
6701.532,-0.373369733333
6703.461,-0.377728133333
6705.389,-0.375882466667
6707.318,-0.3703763
6709.246,-0.3683722
6711.175,-0.363739233333
6713.104,-0.3664744
6715.032,-0.3604154
6716.96,-0.357013166667
6718.889,-0.363082666667
6720.817,-0.361805
6722.746,-0.3519324
6724.674,-0.3499526
6726.603,-0.3506912
6728.531,-0.351844066667
6730.46,-0.349545866667
6732.388,-0.3481184
6734.317,-0.346775033333
6736.245,-0.347238833333
6738.174,-0.3447151
6740.102,-0.347308333333
6742.031,-0.3465079
6743.959,-0.342073166667
6745.888,-0.339224533333
6747.816,-0.337519633333
6749.745,-0.332020366667
6751.673,-0.333738466667
6753.602,-0.335468533333
6755.53,-0.3303449
6757.459,-0.3245294
6759.387,-0.325391466667
6761.316,-0.3258221
6763.244,-0.329891666667
6765.173,-0.329272533333
6767.101,-0.3253662
6769.03,-0.3222805
6770.958,-0.319324566667
6772.887,-0.317635166667
6774.815,-0.3157032
6776.744,-0.3115041
6778.672,-0.310296866667
6780.601,-0.308435033333
6782.529,-0.309594866667
6784.458,-0.306218333333
6786.386,-0.302512866667
6788.315,-0.3024594
6790.243,-0.3046268
6792.172,-0.300424433333
6794.1,-0.302302666667
6796.029,-0.2993253
6797.957,-0.295751966667
6799.886,-0.295578066667
6801.814,-0.300075166667
6803.743,-0.298361966667
6805.671,-0.2963577
6807.6,-0.292424933333
6809.528,-0.286572
6811.457,-0.2852422
6813.385,-0.284491933333
6815.313,-0.2805379
6817.242,-0.28228
6819.171,-0.276980633333
6821.099,-0.271655133333
6823.028,-0.268890366667
6824.956,-0.2699529
6826.885,-0.270485166667
6828.813,-0.274202866667
6830.742,-0.272181466667
6832.67,-0.2700982
6834.599,-0.2650509
6836.527,-0.262155966667
6838.456,-0.262812766667
6840.384,-0.261688233333
6842.313,-0.264168333333
6844.241,-0.264888566667
6846.17,-0.256120533333
6848.098,-0.251974733333
6850.027,-0.248785433333
6851.955,-0.244991233333
6853.884,-0.244695933333
6855.812,-0.2498803
6857.741,-0.253766733333
6859.669,-0.250092966667
6861.598,-0.244259433333
6863.526,-0.239243333333
6865.455,-0.236923633333
6867.383,-0.2399057
6869.312,-0.239079433333
6871.24,-0.232986666667
6873.168,-0.2277751
6875.097,-0.229581566667
6877.026,-0.227828266667
6878.954,-0.226404533333
6880.883,-0.222679
6882.811,-0.224037066667
6884.74,-0.2234327
6886.668,-0.219745966667
6888.597,-0.2159006
6890.525,-0.214507833333
6892.454,-0.214968366667
6894.382,-0.2148062
6896.311,-0.2093665
6898.239,-0.209946433333
6900.167,-0.207979433333
6902.096,-0.206494466667
6904.024,-0.204394833333
6905.953,-0.206678366667
6907.882,-0.205235366667
6909.81,-0.203524166667
6911.739,-0.1982648
6913.667,-0.1957772
6915.596,-0.193099233333
6917.524,-0.196997633333
6919.453,-0.1987231
6921.381,-0.196122766667
6923.31,-0.187881066667
6925.238,-0.1777883
6927.167,-0.177352266667
6929.095,-0.179072566667
6931.023,-0.180184233333
6932.952,-0.180996933333
6934.881,-0.1748731
6936.809,-0.171553933333
6938.738,-0.165802566667
6940.666,-0.167640966667
6942.595,-0.167335133333
6944.523,-0.163621666667
6946.452,-0.1590997
6948.38,-0.1615539
6950.309,-0.160681233333
6952.237,-0.162206366667
6954.166,-0.158253166667
6956.094,-0.153584566667
6958.022,-0.1500032
6959.951,-0.150391333333
6961.879,-0.151360933333
6963.808,-0.151039233333
6965.737,-0.144899633333
6967.665,-0.144827866667
6969.594,-0.144096633333
6971.522,-0.141261826667
6973.451,-0.139937446667
6975.379,-0.139313826667
6977.308,-0.136492063333
6979.236,-0.137473616667
6981.165,-0.1322005
6983.093,-0.125816796667
6985.021,-0.129568206667
6986.95,-0.13385416
6988.878,-0.12827619
6990.807,-0.12714902
6992.735,-0.125174126667
6994.664,-0.124864576667
6996.593,-0.1206976
6998.521,-0.124417913333
7000.45,-0.124101793333
7002.378,-0.114741993333
7004.307,-0.111110076667
7006.235,-0.112194953333
7008.164,-0.103034783333
7010.092,-0.103894243333
7012.021,-0.10614282
7013.949,-0.102743063333
7015.877,-0.0982127066667
7017.806,-0.0959562533333
7019.734,-0.0945016233333
7021.663,-0.0965294166667
7023.592,-0.09476986
7025.52,-0.09032567
7027.449,-0.0857247866667
7029.377,-0.0870629566667
7031.306,-0.0864308566667
7033.234,-0.0880036
7035.163,-0.0842237566667
7037.091,-0.0806393366667
7039.02,-0.0779953233333
7040.948,-0.0732294633333
7042.876,-0.0683337766667
7044.805,-0.0686519666667
7046.733,-0.0654527033333
7048.662,-0.0631118466667
7050.59,-0.0590548086667
7052.519,-0.0639582133333
7054.448,-0.0680104333333
7056.376,-0.06431438
7058.305,-0.0588588666667
7060.233,-0.0565085556667
7062.162,-0.0496330206667
7064.09,-0.0501747551333
7066.019,-0.0503712446667
7067.947,-0.0494047374667
7069.875,-0.0478139526667
7071.804,-0.0545950526667
7073.732,-0.0514970746333
7075.661,-0.0381096666667
7077.589,-0.0344762566667
7079.518,-0.0425641176667
7081.446,-0.0411745263667
7083.375,-0.0399398763333
7085.304,-0.033060202
7087.232,-0.0353559626667
7089.161,-0.0442494611
7091.089,-0.0433645036667
7093.018,-0.0345037696667
7094.946,-0.02565536
7096.875,-0.0175375866667
7098.803,-0.02216748
7100.731,-0.02823454
7102.66,-0.0177504133333
7104.588,-0.00936027333333
7106.517,-0.00853467666667
7108.445,-0.0117845133333
7110.374,-0.0101194233333
7112.302,-0.00382009333333
7114.231,-0.00429662666667
7116.16,-0.00331297666667
7118.088,0.000142913333333
7120.017,-0.00188508333333
7121.945,-0.00746083
7123.874,-0.000319303333333
7125.802,0.00871683666667
7127.73,0.0160517766667
7129.659,0.0179806966667
7131.587,0.0140381766667
7133.516,0.00915261333333
7135.444,0.0125363933333
7137.373,0.01610463
7139.301,0.0181097833333
7141.23,0.0176899333333
7143.159,0.0211964066667
7145.087,0.0281212866667
7147.016,0.0301338066667
7148.944,0.0312448033333
7150.873,0.0326732133333
7152.801,0.03626594
7154.729,0.0427595633333
7156.658,0.04043662
7158.586,0.0468560333333
7160.515,0.0519478766667
7162.443,0.0483344833333
7164.372,0.0420798933333
7166.3,0.0454004966667
7168.229,0.0533685333333
7170.157,0.05935544
7172.086,0.0570854966667
7174.015,0.0575008433333
7175.943,0.0519373233333
7177.872,0.0577624933333
7179.8,0.06673074
7181.729,0.06524081
7183.657,0.06871662
7185.585,0.0663105766667
7187.514,0.06538898
7189.442,0.0777209726667
7191.371,0.0834401093333
7193.299,0.0806905876667
7195.228,0.07519787
7197.156,0.0833926783333
7199.085,0.07837944
7201.013,0.07684302
7202.942,0.08132918
7204.871,0.0818372033333
7206.799,0.0827477306667
7208.728,0.0896692514667
7210.656,0.0907759270333
7212.584,0.0906699311
7214.513,0.0904995313333
7216.441,0.0872227503
7218.37,0.0969298103333
7220.298,0.101837476
7222.227,0.102589913
7224.155,0.106079485
7226.084,0.107322303333
7228.012,0.113022116667
7229.941,0.118178806667
7231.87,0.125740273333
7233.798,0.121328816667
7235.727,0.11239356
7237.655,0.113742243333
7239.583,0.11545705
7241.512,0.107826082667
7243.44,0.12242711
7245.369,0.122042653333
7247.297,0.118578783333
7249.226,0.11846734
7251.154,0.122732926667
7253.083,0.126463403333
7255.011,0.127018426667
7256.94,0.13388764
7258.868,0.15288389
7260.797,0.149637023333
7262.726,0.143497903333
7264.654,0.142755616667
7266.583,0.14287463
7268.511,0.136244266667
7270.439,0.14433457
7272.368,0.15421956
7274.296,0.158019226667
7276.225,0.153425796667
7278.153,0.15000162
7280.082,0.142407756667
7282.01,0.14523142
7283.939,0.163774156667
7285.867,0.174418233333
7287.796,0.170443536667
7289.724,0.175400913333
7291.653,0.177876373333
7293.582,0.170576533333
7295.51,0.164300606667
7297.438,0.169483116667
7299.367,0.176082103333
7301.295,0.180589463333
7303.224,0.181093876667
7305.152,0.18507335
7307.081,0.188543256667
7309.009,0.181515786667
7310.938,0.183821876667
7312.866,0.190536133333
7314.795,0.187138233333
7316.723,0.18539356
7318.652,0.1852959
7320.581,0.1846243
7322.509,0.18291472
7324.438,0.18281378
7326.366,0.187709283333
7328.294,0.187800433333
7330.223,0.193912163333
7332.151,0.201731846667
7334.08,0.193768756667
7336.008,0.201188266667
7337.937,0.209351533333
7339.865,0.2128919
7341.794,0.216974
7343.722,0.2117934
7345.651,0.202122966667
7347.579,0.207172233333
7349.508,0.2194516
7351.437,0.221956066667
7353.365,0.221442166667
7355.293,0.2252895
7357.222,0.2262607
7359.15,0.236834466667
7361.079,0.241941766667
7363.007,0.229021
7364.936,0.219412
7366.864,0.2219769
7368.793,0.2136194
7370.721,0.219584966667
7372.65,0.2249699
7374.578,0.230905366667
7376.507,0.2382281
7378.435,0.238581466667
7380.364,0.248985733333
7382.292,0.264796833333
7384.221,0.235386033333
7386.149,0.220334033333
7388.078,0.2347687
7390.006,0.256360566667
7391.935,0.258333433333
7393.863,0.250851866667
7395.792,0.239043766667
7397.72,0.252045233333
7399.649,0.264677433333
7401.577,0.260516566667
7403.506,0.261636033333
7405.434,0.2703654
7407.363,0.273752566667
7409.291,0.2712899
7411.22,0.2692404
7413.148,0.2806845
7415.077,0.261460033333
7417.005,0.252138966667
7418.934,0.268202366667
7420.862,0.282322866667
7422.791,0.2982226
7424.719,0.302787133333
7426.648,0.284651166667
7428.576,0.278434233333
7430.505,0.272992033333
7432.433,0.273583033333
7434.362,0.270329766667
7436.29,0.2839863
7438.219,0.291384433333
7440.147,0.2810834
7442.076,0.277347766667
7444.004,0.287312466667
7445.933,0.301120133333
7447.861,0.319676433333
7449.79,0.3165088
7451.718,0.303616733333
7453.646,0.283193133333
7455.575,0.2873077
7457.504,0.289927833333
7459.432,0.2982424
7461.361,0.3156224
7463.289,0.338223633333
7465.218,0.3335279
7467.146,0.3301417
7469.075,0.3377043
7471.003,0.3182251
7472.932,0.299282666667
7474.86,0.3085053
7476.789,0.3195186
7478.717,0.324627
7480.646,0.323108933333
7482.574,0.313377933333
7484.503,0.310060933333
7486.431,0.321893766667
7488.36,0.3539688
7490.288,0.3459686
7492.217,0.329854666667
7494.145,0.3564132
7496.074,0.3550256
7498.002,0.361591733333
7499.931,0.369822966667
7501.859,0.360213866667
7503.788,0.357142733333
7505.716,0.352535133333
7507.645,0.3449069
7509.573,0.3267347
7511.501,0.3244077
7513.43,0.335002166667
7515.359,0.343356933333
7517.287,0.351850633333
7519.216,0.3530997
7521.144,0.3499861
7523.073,0.3430842
7525.001,0.355152733333
7526.93,0.3495474
7528.858,0.3425042
7530.787,0.339017833333
7532.715,0.3310583
7534.644,0.318238133333
7536.572,0.349415066667
7538.5,0.378851333333
7540.429,0.379206533333
7542.357,0.3299091
7544.286,0.3083651
7546.215,0.328499766667
7548.143,0.356683633333
7550.072,0.356454
7552.0,0.366684266667
7553.929,0.3854121
7555.857,0.3793384
7557.786,0.381132533333
7559.714,0.3823515
7561.643,0.368929266667
7563.571,0.376920866667
7565.5,0.374777833333
7567.428,0.3742905
7569.356,0.385834066667
7571.285,0.389171166667
7573.214,0.369738766667
7575.142,0.352507666667
7577.071,0.3601419
7578.999,0.3808378
7580.928,0.379307633333
7582.856,0.364679133333
7584.785,0.375293666667
7586.713,0.3979393
7588.642,0.385636333333
7590.57,0.384727133333
7592.499,0.390736533333
7594.427,0.390189533333
7596.355,0.391582666667
7598.284,0.3902315
7600.212,0.360513
7602.141,0.370262033333
7604.07,0.4000486
7605.998,0.405482766667
7607.927,0.404209566667
7609.855,0.394786233333
7611.784,0.386770233333
7613.712,0.4017851
7615.641,0.390271633333
7617.569,0.380909566667
7619.498,0.370802033333
7621.426,0.3635579
7623.354,0.374092533333
7625.283,0.3856178
7627.211,0.382219466667
7629.14,0.382584566667
7631.068,0.402480566667
7632.997,0.419291666667
7634.926,0.4302181
7636.854,0.4326574
7638.783,0.4163758
7640.711,0.415826
7642.64,0.4261029
7644.568,0.441768066667
7646.497,0.4245927
7648.425,0.4029347
7650.354,0.3881256
7652.282,0.405692933333
7654.21,0.425870533333
7656.139,0.423546733333
7658.067,0.401292233333
7659.996,0.403942066667
7661.925,0.4238255
7663.853,0.4248746
7665.782,0.3954687
7667.71,0.394433966667
7669.639,0.4298456
7671.567,0.4460176
7673.496,0.424657733333
7675.424,0.4119398
7677.353,0.3940313
7679.281,0.429103333333
7681.209,0.443183633333
7683.138,0.4356116
7685.066,0.435785166667
7686.995,0.432085666667
7688.923,0.4128844
7690.852,0.397791533333
7692.781,0.417790966667
7694.709,0.466903233333
7696.638,0.466375166667
7698.566,0.450557066667
7700.495,0.450838466667
7702.423,0.4839647
7704.352,0.490685166667
7706.28,0.4687227
7708.208,0.457733
7710.137,0.439988566667
7712.065,0.4538928
7713.994,0.472287433333
7715.922,0.453027733333
7717.851,0.4499335
7719.779,0.459573166667
7721.708,0.463332766667
7723.637,0.449750333333
7725.565,0.4697059
7727.494,0.507308733333
7729.422,0.499702133333
7731.351,0.497115966667
7733.279,0.480848966667
7735.208,0.4259628
7737.136,0.429517833333
7739.064,0.461162766667
7740.993,0.491348766667
7742.921,0.469911633333
7744.85,0.4211856
7746.778,0.437032633333
7748.707,0.4774667
7750.635,0.4319712
7752.564,0.4054675
7754.493,0.422289466667
7756.421,0.453305266667
7758.35,0.440853066667
7760.278,0.4421816
7762.207,0.4679978
7764.135,0.463660366667
7766.063,0.468692433333
7767.992,0.4807551
7769.92,0.496632666667
7771.849,0.467775033333
7773.777,0.429865966667
7775.706,0.456411766667
7777.634,0.4796496
7779.563,0.473549933333
7781.492,0.47113
7783.42,0.458499733333
7785.349,0.423399966667
7787.277,0.44876
7789.206,0.4771032
7791.134,0.4730565
7793.063,0.4596169
7794.991,0.4453113
7796.919,0.4780992
7798.848,0.502932266667
7800.776,0.462381766667
7802.705,0.477840533333
7804.633,0.455450033333
7806.562,0.490737966667
7808.49,0.5588041
7810.419,0.5103027
7812.348,0.475715633333
7814.276,0.499345133333
7816.205,0.460885633333
7818.133,0.438982133333
7820.062,0.442176666667
7821.99,0.455072133333
7823.918,0.455125866667
7825.847,0.445539633333
7827.775,0.419912466667
7829.704,0.403847733333
7831.632,0.445502333333
7833.561,0.500437066667
7835.489,0.498683433333
7837.418,0.4809134
7839.346,0.479199766667
7841.275,0.473143666667
7843.204,0.4330405
7845.132,0.398328633333
7847.061,0.449523833333
7848.989,0.5142867
7850.917,0.511748433333
7852.846,0.4924197
7854.774,0.453496433333
7856.703,0.450016333333
7858.631,0.4542938
7860.56,0.464559233333
7862.488,0.46152
7864.417,0.506656766667
7866.345,0.532054533333
7868.274,0.4827838
7870.203,0.426893233333
7872.131,0.430360366667
7874.06,0.451999533333
7875.988,0.442332366667
7877.917,0.4570463
7879.845,0.447159666667
7881.773,0.4216582
7883.702,0.4634372
7885.63,0.471488433333
7887.559,0.471019633333
7889.487,0.481121633333
7891.416,0.4483138
7893.344,0.4287446
7895.273,0.450966033333
7897.201,0.425527333333
7899.13,0.433931066667
7901.059,0.451923866667
7902.987,0.456072066667
7904.916,0.453976266667
7906.844,0.4625982
7908.772,0.498715566667
7910.701,0.507944066667
7912.629,0.447014733333
7914.558,0.402441666667
7916.486,0.378645633333
7918.415,0.386598733333
7920.343,0.406595566667
7922.272,0.453319033333
7924.2,0.451280333333
7926.129,0.396350366667
7928.057,0.4252128
7929.986,0.5052727
7931.915,0.481691866667
7933.843,0.442275933333
7935.771,0.4112172
7937.7,0.429133633333
7939.628,0.4469208
7941.557,0.447301066667
7943.485,0.407095066667
7945.414,0.380017933333
7947.342,0.399526733333
7949.271,0.400224533333
7951.199,0.372174166667
7953.128,0.385448866667
7955.056,0.381042066667
7956.985,0.394391433333
7958.914,0.421920566667
7960.842,0.477393933333
7962.771,0.481677266667
7964.699,0.4638289
7966.627,0.420067866667
7968.556,0.430510366667
7970.484,0.508731766667
7972.413,0.520549633333
7974.341,0.467476266667
7976.27,0.439795466667
7978.198,0.4660891
7980.127,0.462734466667
7982.055,0.462424166667
7983.984,0.4883316
7985.912,0.464302933333
7987.841,0.4820209
7989.77,0.464961433333
7991.698,0.421249533333
7993.626,0.421478766667
7995.555,0.4677592
7997.483,0.457558066667
7999.412,0.396780966667
8001.34,0.3872097
8003.269,0.393332533333
8005.197,0.3876997
8007.126,0.461151533333
8009.054,0.500955766667
8010.983,0.4494754
8012.911,0.440065166667
8014.84,0.428790366667
8016.768,0.3547518
8018.697,0.347499766667
8020.625,0.319661633333
8022.554,0.3380651
8024.482,0.403385433333
8026.411,0.458199366667
8028.339,0.4331443
8030.268,0.4187093
8032.196,0.4405976
8034.125,0.434754
8036.053,0.438829133333
8037.982,0.510973833333
8039.91,0.511149533333
8041.839,0.3766706
8043.767,0.322224833333
8045.696,0.406991566667
8047.624,0.421463766667
8049.553,0.389371633333
8051.481,0.408592433333
8053.41,0.421000433333
8055.338,0.386278966667
8057.267,0.420632066667
8059.195,0.396247966667
8061.124,0.367522966667
8063.052,0.478234066667
8064.981,0.512891066667
8066.909,0.398917866667
8068.838,0.3946207
8070.766,0.413432733333
8072.695,0.390113633333
8074.623,0.390873366667
8076.552,0.3885822
8078.48,0.3458906
8080.409,0.3503038
8082.337,0.315306533333
8084.266,0.342004366667
8086.194,0.3790498
8088.123,0.440274566667
8090.051,0.4238484
8091.979,0.411068466667
8093.908,0.440351
8095.837,0.492242933333
8097.765,0.5735586
8099.694,0.544252066667
8101.622,0.470879833333
8103.551,0.3838924
8105.479,0.275764466667
8107.408,0.385835533333
8109.336,0.429036333333
8111.265,0.510869466667
8113.193,0.5277276
8115.122,0.487847
8117.05,0.473675233333
8118.979,0.447999333333
8120.907,0.498012366667
8122.836,0.552858466667
8124.764,0.516833466667
8126.693,0.455622766667
8128.621,0.397291333333
8130.55,0.3240186
8132.478,0.326271733333
8134.407,0.317407866667
8136.335,0.291039166667
8138.264,0.283558366667
8140.192,0.261689966667
8142.121,0.329235666667
8144.049,0.3550483
8145.978,0.3300982
8147.906,0.2687892
8149.834,0.2744922
8151.763,0.313598963333
8153.692,0.3623014
8155.62,0.388064866667
8157.549,0.3512497
8159.477,0.257881233333
8161.406,0.291378266667
8163.334,0.392434266667
8165.263,0.450053933333
8167.191,0.372299233333
8169.12,0.272476533333
8171.048,0.2910159
8172.977,0.4576579
8174.905,0.4774192
8176.833,0.400650866667
8178.762,0.356428633333
8180.69,0.383806066667
8182.619,0.328197166667
8184.548,0.2756921
8186.476,0.262995533333
8188.405,0.229189866667
8190.333,0.256263666667
8192.262,0.344203366667
8194.19,0.257988833333
8196.118,0.268713086667
8198.047,0.3972644
8199.976,0.433516333333
8201.904,0.361678666667
8203.833,0.405688066667
8205.761,0.3707859
8207.689,0.2821067
8209.618,0.239405466667
8211.547,0.258488433333
8213.476,0.316807666667
8215.403,0.4386792
8217.332,0.311844133333
8219.261,0.432430766667
8221.189,0.508968933333
8223.117,0.424017466667
8225.046,0.376088666667
8226.975,0.4749803
8228.903,0.4022953
8230.832,0.374186966667
8232.76,0.347369566667
8234.688,0.320318166667
8236.617,0.3696401
8238.546,0.427959933333
8240.474,0.456529733333
8242.402,0.485602033333
8244.331,0.5071114
8246.26,0.3857437
8248.188,0.351649133333
8250.116,0.427699366667
8252.045,0.4408572
8253.974,0.32809158
8255.902,0.395273666667
8257.831,0.537999533333
8259.759,0.3632545
8261.688,0.335471233333
8263.616,0.508190466667
8265.545,0.5778679
8267.473,2.24296186667
8269.401,0.616847466667
8271.33,0.5180627
8273.259,0.439519333333
8275.188,0.3274212
8277.115,0.3694921
8279.044,0.353818766667
8280.973,0.453867933333
8282.901,0.467146833333
8284.829,0.364551866667
8286.758,0.334365433333
8288.687,0.351068933333
8290.615,0.353317466667
8292.544,0.474812766667
8294.472,0.431145666667
8296.4,0.365273766667
8298.329,0.395656833333
8300.258,0.552748266667
8302.187,0.5027087
8304.114,0.364482133333
8306.043,0.3228955
8307.972,0.312996533333
8309.9,0.299994633333
8311.828,0.339728566667
8313.757,0.458565233333
8315.686,0.6089246
8317.614,0.603401733333
8319.543,0.422991193333
8321.471,0.246608973333
8323.399,0.247786115
8325.328,0.252963593333
8327.257,0.396946133333
8329.185,0.337411903333
8331.113,2.10128566667
8333.042,2.19969033333
8334.971,0.7184861
8336.899,0.553201466667
8338.827,0.548609233333
8340.756,0.479026233333
8342.685,0.468124666667
8344.613,0.568778533333
8346.542,0.478291233333
8348.47,0.444309466667
8350.398,0.516305286667
8352.327,0.402882633333
8354.256,0.412912733333
8356.184,0.443989766667
8358.112,0.54890414
8360.041,2.05530151333
8361.97,2.03865142667
8363.898,0.370265166667
8365.826,0.385091233333
8367.755,0.369085776667
8369.684,0.548364466667
8371.612,0.576811084667
8373.54,0.263201466667
8375.469,0.312573666667
8377.397,0.380788356667
8379.326,0.3645879
8381.255,0.292211266667
8383.183,0.2176776
8385.111,0.336040733333
8387.04,0.430910366667
8388.969,0.549128166667
8390.897,2.2379576
8392.825,0.618776066667
8394.754,0.350102733333
8396.683,0.3968262
8398.611,0.495407433333
8400.539,0.347712833333
8402.468,0.220521766667
8404.396,0.456941533333
8406.325,0.516703233333
8408.254,0.358591666667
8410.182,0.22203175
8412.11,0.307136766667
8414.039,0.28641787
8415.968,0.3591266
8417.896,0.5280351
8419.824,0.785028733333
8421.753,0.397795833333
8423.682,0.357850733333
8425.61,0.368126666667
8427.538,0.4264624
8429.467,0.401760166667
8431.396,1.97642553667
8433.324,2.0438701
8435.253,0.409352506667
8437.181,0.318486433333
8439.109,0.963173066667
8441.038,0.602639133333
8442.967,0.625344066667
8444.895,0.309658093333
8446.823,0.180634666667
8448.752,0.363669333333
8450.681,0.503165133333
8452.609,0.390366645667
8454.537,0.241506063333
8456.466,0.324511723333
8458.395,2.10987784
8460.323,2.1902552
8462.251,0.447192133333
8464.18,0.191781443333
8466.108,2.05882308333
8468.037,2.23318456667
8469.966,0.475461113333
8471.894,0.21544761
8473.822,1.93680154667
8475.751,0.352864746667
8477.68,0.397695833333
8479.608,0.304472533333
8481.536,0.214957913333
8483.465,0.022292593
8485.394,0.0129432273333
8487.322,0.138655833333
8489.25,1.91894273667
8491.179,0.4132199
8493.107,0.172888333333
8495.036,0.133968366667
8496.965,0.147412186667
8498.893,0.708365366667
8500.821,4.0977007
