449.3401,0.00960601333333
451.2686,-0.00684745
453.1971,-0.0383344356667
455.1256,-0.024453579
457.0541,0.00498696
458.9826,0.00179923333333
460.9111,-0.042911977
462.8396,-0.000345663333333
464.7681,0.0136527666667
466.6966,0.0432924233333
468.6251,0.00899301666667
470.5536,0.0168009533333
472.4821,0.02697346
474.4106,-0.0105711333333
476.3391,-0.0718930366667
478.2676,-0.02724812
480.1961,-0.0194279966667
482.1246,0.00023257
484.0531,-0.004784803
485.9816,-0.01371611
487.9101,-0.0493501066667
489.8386,0.00654308833333
491.7671,0.0648712366667
493.6956,0.0853652633333
495.6241,0.04558259
497.5526,0.00546437333333
499.4811,0.000874213333333
501.4096,0.0209809033333
503.3381,0.0272667133333
505.2666,0.03597283
507.1951,0.0197215633333
509.1236,0.0324893966667
511.0521,0.0803793966667
512.9806,0.119640483333
514.9091,0.0692858593333
516.8376,0.045504325
518.7661,0.0441760766667
520.6946,0.0300514766667
522.6231,-0.00211992333333
524.5516,0.0416579513333
526.4801,0.0806049066667
528.4086,0.115230956667
530.3371,0.149186873333
532.2656,0.1952608
534.1941,0.166330533333
536.1226,0.168680053333
538.0511,0.194324433333
539.9796,0.213861133333
541.9081,0.256508766667
543.8365,0.278554433333
545.7651,0.2338757
547.6935,0.2805495
549.6221,0.3299475
551.5506,0.3706693
553.4791,0.369567533333
555.4076,0.364440366667
557.3361,0.3803089
559.2646,0.425707533333
561.1931,0.4732679
563.1216,0.510175333333
565.05,0.571093866667
566.9786,0.615444966667
568.907,0.6373497
570.8356,0.666411333333
572.764,0.710489433333
574.6926,0.742993433333
576.621,0.799027566667
578.5496,0.873724033333
580.478,0.9250409
582.4066,0.950107566667
584.335,0.993699633333
586.2635,1.05326133333
588.192,1.10123766667
590.1205,1.10891133333
592.049,1.122002
593.9775,1.143999
595.906,1.169871
597.8345,1.21914733333
599.7631,1.25402733333
601.6915,1.275137
603.6201,1.292632
605.5485,1.31640933333
607.4771,1.34137633333
609.4055,1.34574033333
611.334,1.35636066667
613.2625,1.376336
615.191,1.389849
617.1195,1.413573
619.048,1.44108333333
620.9765,1.49049566667
622.905,1.509047
624.8335,1.50319366667
626.762,1.52423633333
628.6905,1.52666033333
630.619,1.52313033333
632.5475,1.545599
634.476,1.55359166667
636.4045,1.55237133333
638.333,1.588606
640.2615,1.596168
642.19,1.598405
644.1185,1.58219066667
646.047,1.58782366667
647.9755,1.61547166667
649.904,1.643681
651.8325,1.64024
653.761,1.64383866667
655.6895,1.66872733333
657.618,1.696158
659.5465,1.705217
661.475,1.69797533333
663.4035,1.731582
665.332,1.73779133333
667.2605,1.56893833333
669.189,1.53037766667
671.1175,1.672042
673.046,1.72096733333
674.9745,1.75414666667
676.903,1.75180533333
678.8315,1.752603
680.7599,1.78064466667
682.6885,1.80103033333
684.6169,1.815961
686.5455,1.81414133333
688.4739,1.799402
690.4025,1.80260166667
692.3309,1.81749566667
694.2595,1.849308
696.188,1.85004733333
698.1165,1.83849333333
700.045,1.828786
701.9734,1.82086233333
703.902,1.83232433333
705.8304,1.86737766667
707.759,1.884735
709.6874,1.86328033333
711.616,1.84153033333
713.5444,1.855707
715.473,1.878108
717.4014,1.872755
719.33,1.852914
721.2584,1.86845
723.187,1.88741133333
725.1154,1.88413166667
727.0439,1.89197033333
728.9724,1.89349633333
730.9009,1.88833133333
732.8294,1.887666
734.7579,1.89351733333
736.6864,1.891842
738.6149,1.889576
740.5434,1.86835
742.4719,1.85382933333
744.4004,1.85750666667
746.3289,1.877712
748.2574,1.891311
750.1859,1.89409166667
752.1144,1.90343333333
754.0429,1.92322933333
755.9714,1.93059233333
757.8999,1.919075
759.8284,1.891063
761.7569,1.88105233333
763.6854,1.90241533333
765.6139,1.92418833333
767.5424,1.92569466667
769.4709,1.953391
771.3994,1.945308
773.3279,1.913957
775.2564,1.91710866667
777.1849,1.91765233333
779.1134,1.91385566667
781.0419,1.92833566667
782.9704,1.927649
784.8989,1.93005633333
786.8274,1.93566466667
788.7559,1.926082
790.6844,1.92667166667
792.6129,1.92074933333
794.5414,1.918092
796.4699,1.915338
798.3984,1.90166433333
800.3269,1.92664266667
802.2554,1.952611
804.1839,1.94076066667
806.1124,1.936389
808.0409,1.94644533333
809.9694,1.93733466667
811.8979,1.94828433333
813.8264,1.962244
815.7549,1.963735
817.6833,1.95930066667
819.6119,1.96962566667
821.5403,1.98349
823.4689,1.99006733333
825.3973,1.98949466667
827.3259,1.98967566667
829.2543,1.99759533333
831.1829,2.01126966667
833.1113,2.004448
835.0399,2.00245766667
836.9683,1.99972666667
838.8969,2.009947
840.8253,2.01910133333
842.7538,2.01024966667
844.6824,1.993576
846.6108,1.99005066667
848.5394,1.99639466667
850.4678,1.996862
852.3964,1.99020366667
854.3248,1.993303
856.2534,2.01297533333
858.1818,2.020062
860.1104,2.009655
862.0388,2.01273066667
863.9673,2.00942866667
865.8958,2.000213
867.8243,1.99805633333
869.7528,1.97487266667
871.6813,1.981086
873.6098,2.02202933333
875.5383,2.03273533333
877.4668,2.019692
879.3953,2.02731833333
881.3238,2.03179733333
883.2523,2.01917433333
885.1808,2.005833
887.1093,2.00257266667
889.0378,2.01878933333
890.9663,2.02618033333
892.8948,2.00090633333
894.8233,2.01550133333
896.7518,2.05058866667
898.6803,2.06372766667
900.6088,2.06681966667
902.5373,2.05903333333
904.4658,2.05236033333
906.3943,2.06142633333
908.3228,2.064911
910.2513,2.06303966667
912.1798,2.06339433333
914.1083,2.04672733333
916.0368,2.05194066667
917.9653,2.05804033333
919.8938,2.059239
921.8223,2.05807566667
923.7508,2.06976266667
925.6793,2.06920833333
927.6078,2.05774933333
929.5363,2.05752966667
931.4648,2.06297466667
933.3932,2.07942266667
935.3218,2.06434233333
937.2502,2.04412333333
939.1788,2.04463666667
941.1072,2.06927833333
943.0358,2.085806
944.9643,2.07515033333
946.8928,2.07688766667
948.8213,2.07825133333
950.7498,2.069185
952.6783,2.05814633333
954.6068,2.04380166667
956.5353,2.05039633333
958.4637,2.08016033333
960.3923,2.07764033333
962.3207,2.05798
964.2493,2.06394766667
966.1777,2.090679
968.1063,2.07590533333
970.0347,2.06440366667
971.9633,2.06987533333
973.8917,2.055381
975.8203,2.06905566667
977.7487,2.08878666667
979.6772,2.07210566667
981.6057,2.07281866667
983.5342,2.07269766667
985.4627,2.09126933333
987.3912,2.10127633333
989.3197,2.08149366667
991.2482,2.07533466667
993.1768,2.091136
995.1052,2.10191933333
997.0338,2.093826
998.9622,2.08529966667
1000.891,2.08997166667
1002.819,2.10630733333
1004.748,2.10819166667
1006.676,2.09617966667
1008.605,2.09691766667
1010.533,2.09743466667
1012.462,2.08405
1014.39,2.084102
1016.319,2.11882366667
1018.247,2.11115233333
1020.176,2.09463966667
1022.104,2.09099066667
1024.033,2.07893466667
1025.961,2.05440866667
1027.89,2.04818833333
1029.818,2.05647466667
1031.747,2.05334666667
1033.675,2.06862466667
1035.604,2.09782333333
1037.532,2.10675366667
1039.461,2.098382
1041.389,2.10724233333
1043.318,2.120188
1045.246,2.13007733333
1047.175,2.147302
1049.103,2.166609
1051.032,2.17221366667
1052.96,2.150918
1054.889,2.117676
1056.817,2.11077533333
1058.746,2.14281333333
1060.674,2.152902
1062.603,2.13495066667
1064.531,2.13462766667
1066.46,2.14257133333
1068.388,2.12787366667
1070.317,2.11772366667
1072.245,2.10961233333
1074.174,2.123733
1076.102,2.125643
1078.031,2.129588
1079.959,2.137297
1081.888,2.14598633333
1083.816,2.13915966667
1085.745,2.15592033333
1087.673,2.16242933333
1089.602,2.15615733333
1091.53,2.14409066667
1093.459,2.13429066667
1095.387,2.16961266667
1097.316,2.18286833333
1099.244,2.16679133333
1101.173,2.151579
1103.101,2.12913333333
1105.03,2.134313
1106.958,2.16125733333
1108.887,2.14985966667
1110.815,2.14396866667
1112.744,2.15792733333
1114.672,2.19309866667
1116.601,2.21760166667
1118.529,2.22054233333
1120.458,2.21638866667
1122.386,2.19641966667
1124.315,2.18902766667
1126.243,2.18630033333
1128.172,2.19969066667
1130.1,2.203641
1132.029,2.19065366667
1133.957,2.18320666667
1135.886,2.17283866667
1137.814,2.20075566667
1139.743,2.23665233333
1141.671,2.226987
1143.6,2.19702333333
1145.528,2.20773633333
1147.457,2.222689
1149.385,2.218736
1151.314,2.230437
1153.242,2.220359
1155.171,2.23002033333
1157.099,2.23705733333
1159.028,2.230268
1160.956,2.22743933333
1162.885,2.23311366667
1164.813,2.21646566667
1166.742,2.19193033333
1168.67,2.19956866667
1170.599,2.239995
1172.527,2.257803
1174.456,2.23708533333
1176.384,2.22603166667
1178.313,2.225531
1180.241,2.226102
1182.17,2.24528033333
1184.098,2.24401933333
1186.027,2.22850833333
1187.955,2.23744666667
1189.884,2.24715433333
1191.812,2.25524766667
1193.741,2.24628366667
1195.669,2.23524266667
1197.598,2.23392366667
1199.526,2.23274666667
1201.455,2.24353166667
1203.383,2.24727
1205.312,2.24824933333
1207.24,2.245693
1209.169,2.25123466667
1211.097,2.23529166667
1213.026,2.21931133333
1214.954,2.22269533333
1216.883,2.233073
1218.811,2.25332533333
1220.74,2.27451333333
1222.668,2.27406366667
1224.597,2.25496266667
1226.525,2.24575633333
1228.453,2.24609966667
1230.382,2.25284
1232.311,2.282685
1234.239,2.29764166667
1236.167,2.271478
1238.096,2.26685766667
1240.025,2.25195733333
1241.953,2.25174066667
1243.882,2.26061966667
1245.81,2.25524133333
1247.739,2.25219566667
1249.667,2.25698566667
1251.596,2.258896
1253.524,2.25445033333
1255.453,2.256834
1257.381,2.259591
1259.31,2.239876
1261.238,2.238246
1263.167,2.23213533333
1265.095,2.24641666667
1267.024,2.26685433333
1268.952,2.25937766667
1270.88,2.27997033333
1272.809,2.288511
1274.738,2.256564
1276.666,2.26859333333
1278.594,2.28290533333
1280.523,2.28104533333
1282.452,2.28196466667
1284.38,2.28903866667
1286.308,2.29565933333
1288.237,2.28368433333
1290.166,2.27740466667
1292.094,2.28805966667
1294.022,2.301609
1295.951,2.28867566667
1297.88,2.28664433333
1299.808,2.315904
1301.736,2.31748366667
1303.665,2.295356
1305.594,2.29737766667
1307.522,2.287177
1309.45,2.281718
1311.379,2.276861
1313.307,2.27290766667
1315.236,2.278842
1317.164,2.270672
1319.093,2.273023
1321.021,2.28872733333
1322.95,2.2739
1324.878,2.27197966667
1326.807,2.28570933333
1328.735,2.286409
1330.664,2.28168133333
1332.592,2.30167833333
1334.521,2.31432666667
1336.449,2.29445766667
1338.378,2.26346733333
1340.307,2.26710233333
1342.235,2.31159266667
1344.163,2.324913
1346.092,2.29233566667
1348.021,2.283066
1349.949,2.302297
1351.877,2.32627166667
1353.806,2.31555933333
1355.734,2.29999533333
1357.663,2.309849
1359.591,2.30390966667
1361.52,2.26268233333
1363.448,2.252294
1365.377,2.30018433333
1367.305,2.30364033333
1369.234,2.274183
1371.162,2.29540166667
1373.091,2.28544066667
1375.019,2.249539
1376.948,2.26062666667
1378.876,2.280191
1380.805,2.29711933333
1382.733,2.303554
1384.662,2.30920366667
1386.59,2.286135
1388.519,2.29508333333
1390.447,2.313406
1392.376,2.28438933333
1394.304,2.25486366667
1396.233,2.27544133333
1398.161,2.30778333333
1400.09,2.321664
1402.018,2.32748233333
1403.947,2.29577766667
1405.875,2.29022666667
1407.804,2.30315666667
1409.732,2.33049166667
1411.661,2.33808733333
1413.589,2.32171766667
1415.518,2.28893633333
1417.446,2.244111
1419.375,2.230538
1421.303,2.30283733333
1423.232,2.304263
1425.16,2.27542733333
1427.089,2.26962633333
1429.017,2.25533733333
1430.946,2.26404466667
1432.874,2.291449
1434.803,2.259737
1436.731,2.22320333333
1438.66,2.247014
1440.588,2.25577966667
1442.517,2.23153566667
1444.445,2.21282033333
1446.374,2.191775
1448.302,2.17215533333
1450.231,2.183491
1452.159,2.17177266667
1454.088,2.14796366667
1456.016,2.07365566667
1457.945,2.057094
1459.873,2.13490433333
1461.802,2.16231333333
1463.73,2.15685166667
1465.659,2.17306066667
1467.587,2.19298166667
1469.516,2.188014
1471.444,2.14888633333
1473.373,2.13508633333
1475.301,2.14455033333
1477.23,2.16976733333
1479.158,2.19884833333
1481.087,2.16705933333
1483.015,2.149173
1484.944,2.13419333333
1486.872,2.11037666667
1488.801,2.075968
1490.729,2.04601533333
1492.658,2.06018266667
1494.586,2.06315866667
1496.515,2.03186566667
1498.443,2.025481
1500.372,2.01978133333
1502.3,2.00926733333
1504.229,1.983195
1506.157,1.91952633333
1508.086,1.91973966667
1510.014,1.96345666667
1511.943,1.986612
1513.871,2.000446
1515.8,1.98800366667
1517.728,2.00650433333
1519.657,2.026664
1521.585,1.99228333333
1523.514,1.99916866667
1525.442,2.02865233333
1527.371,2.06285966667
1529.299,2.083577
1531.228,2.087674
1533.156,2.088489
1535.085,2.094213
1537.013,2.08701466667
1538.942,2.024935
1540.87,1.97928733333
1542.799,2.027543
1544.727,2.03357466667
1546.656,2.049557
1548.584,2.05183366667
1550.513,2.04011433333
1552.441,2.045628
1554.37,2.028537
1556.298,2.01278533333
1558.227,1.97284866667
1560.155,1.96685666667
1562.084,1.98534033333
1564.012,1.97036233333
1565.941,1.96531166667
1567.869,1.96302966667
1569.798,1.930681
1571.726,1.923239
1573.655,1.92055666667
1575.583,1.89220233333
1577.512,1.881355
1579.44,1.89532766667
1581.369,1.89807033333
1583.297,1.90755633333
1585.226,1.91321266667
1587.154,1.91053133333
1589.083,1.90713766667
1591.011,1.909167
1592.94,1.908502
1594.868,1.91411933333
1596.797,1.92189566667
1598.725,1.92321333333
1600.654,1.92738066667
1602.582,1.93817033333
1604.511,1.95339933333
1606.439,1.955591
1608.368,1.95159766667
1610.296,1.95356866667
1612.225,1.96945433333
1614.153,1.98322833333
1616.082,1.97915833333
1618.01,1.99026
1619.939,1.99664
1621.867,1.98952366667
1623.796,1.997194
1625.724,2.03318
1627.653,2.062377
1629.581,2.08927566667
1631.51,2.10036333333
1633.438,2.09914366667
1635.367,2.08032433333
1637.295,2.11038633333
1639.224,2.16593966667
1641.152,2.209816
1643.081,2.22206033333
1645.009,2.19968333333
1646.938,2.200576
1648.866,2.28543933333
1650.795,2.31210466667
1652.723,2.269754
1654.652,2.31849566667
1656.58,2.36517766667
1658.509,2.413159
1660.437,2.43683166667
1662.366,2.42830766667
1664.294,2.50849733333
1666.223,2.501605
1668.151,2.42837666667
1670.08,2.40212066667
1672.008,2.43650333333
1673.937,2.42269433333
1675.865,2.36749166667
1677.794,2.41942166667
1679.722,2.45092533333
1681.651,2.44448766667
1683.579,2.41011133333
1685.508,2.423221
1687.436,2.45972866667
1689.365,2.453306
1691.293,2.47253433333
1693.222,2.47819366667
1695.15,2.43352966667
1697.079,2.41800066667
1699.007,2.43420933333
1700.936,2.417806
1702.864,2.42769833333
1704.793,2.42850233333
1706.721,2.42688933333
1708.65,2.45135466667
1710.578,2.45463466667
1712.507,2.439561
1714.435,2.41764766667
1716.364,2.43562366667
1718.292,2.46008066667
1720.221,2.464793
1722.149,2.46067066667
1724.078,2.46764533333
1726.006,2.47295866667
1727.935,2.45747833333
1729.863,2.44739633333
1731.792,2.433847
1733.72,2.41708766667
1735.649,2.42197933333
1737.577,2.44531266667
1739.506,2.42560433333
1741.434,2.42322266667
1743.363,2.46253166667
1745.291,2.50294533333
1747.22,2.455955
1749.148,2.42180066667
1751.077,2.44782933333
1753.005,2.489983
1754.934,2.48283433333
1756.862,2.48558233333
1758.791,2.515624
1760.719,2.526278
1762.648,2.530633
1764.576,2.568278
1766.505,2.523541
1768.433,2.485988
1770.362,2.48159666667
1772.29,2.474717
1774.219,2.51382833333
1776.147,2.50300866667
1778.076,2.48675433333
1780.004,2.48160066667
1781.933,2.483687
1783.861,2.51386966667
1785.79,2.51504366667
1787.718,2.48976166667
1789.647,2.486671
1791.575,2.49918
1793.504,2.50649433333
1795.432,2.501497
1797.361,2.49942466667
1799.289,2.51036833333
1801.218,2.54894333333
1803.146,2.56254866667
1805.075,2.552688
1807.003,2.564888
1808.932,2.56870733333
1810.86,2.57174566667
1812.789,2.580002
1814.717,2.57928833333
1816.646,2.56570966667
1818.574,2.52165566667
1820.503,2.52093333333
1822.431,2.53957733333
1824.36,2.56741066667
1826.288,2.56906433333
1828.217,2.50833666667
1830.145,2.511052
1832.074,2.572748
1834.002,2.59641366667
1835.931,2.60521133333
1837.859,2.58061633333
1839.788,2.57882266667
1841.716,2.57186633333
1843.645,2.550175
1845.573,2.55167
1847.502,2.55381866667
1849.43,2.57603633333
1851.359,2.57903333333
1853.287,2.600962
1855.216,2.61992433333
1857.144,2.59567
1859.073,2.57618333333
1861.001,2.54403733333
1862.93,2.57398566667
1864.858,2.613225
1866.786,2.56786666667
1868.715,2.56605333333
1870.644,2.600861
1872.572,2.58070333333
1874.5,2.566531
1876.429,2.59928366667
1878.358,2.564734
1880.286,2.59214
1882.215,2.601976
1884.143,2.59987
1886.072,2.61886333333
1888.0,2.59810466667
1889.929,2.638053
1891.857,2.656998
1893.786,2.570351
1895.714,2.559234
1897.643,2.59466966667
1899.571,2.61451366667
1901.5,2.61236933333
1903.428,2.56649533333
1905.357,2.55158333333
1907.285,2.58309133333
1909.214,2.634215
1911.142,2.625005
1913.071,2.582788
1914.999,2.57369033333
1916.927,2.57182666667
1918.856,2.60510433333
1920.785,2.64956366667
1922.713,2.65807433333
1924.641,2.67679966667
1926.57,2.643385
1928.499,2.62756366667
1930.427,2.64421
1932.355,2.63103066667
1934.284,2.597809
1936.213,2.59704266667
1938.141,2.66428266667
1940.069,2.672221
1941.998,2.578583
1943.927,2.51840566667
1945.855,2.50055333333
1947.783,2.47006966667
1949.712,2.399203
1951.641,2.32177033333
1953.569,2.25832333333
1955.497,2.205363
1957.426,2.15856533333
1959.354,2.10654566667
1961.283,2.04902366667
1963.211,2.00593
1965.14,1.97093066667
1967.068,1.94182866667
1968.997,1.90429433333
1970.925,1.867352
1972.854,1.84384966667
1974.782,1.824621
1976.711,1.80427866667
1978.639,1.78060333333
1980.568,1.76077333333
1982.496,1.74841966667
1984.425,1.73065666667
1986.354,1.70948933333
1988.282,1.696746
1990.21,1.68698933333
1992.139,1.67394166667
1994.068,1.66132133333
1995.996,1.64763366667
1997.924,1.63638566667
1999.853,1.62828333333
2001.781,1.619147
2003.71,1.60482266667
2005.638,1.59440733333
2007.567,1.58485766667
2009.495,1.57624433333
2011.424,1.57139033333
2013.352,1.55975966667
2015.281,1.54552066667
2017.209,1.53889166667
2019.138,1.53532833333
2021.066,1.526973
2022.995,1.51634866667
2024.923,1.504507
2026.852,1.49351233333
2028.78,1.484679
2030.709,1.473488
2032.637,1.45965066667
2034.566,1.45141266667
2036.494,1.44226333333
2038.423,1.43360733333
2040.351,1.42091833333
2042.28,1.40636766667
2044.208,1.39621033333
2046.137,1.38813433333
2048.065,1.37544666667
2049.994,1.362365
2051.922,1.35278266667
2053.851,1.34535866667
2055.779,1.33503966667
2057.708,1.32617566667
2059.636,1.319504
2061.565,1.31310466667
2063.493,1.304071
2065.422,1.294592
2067.35,1.287661
2069.279,1.28256066667
2071.207,1.27392066667
2073.136,1.26439966667
2075.064,1.25706733333
2076.993,1.25139166667
2078.921,1.244745
2080.85,1.23818866667
2082.778,1.228874
2084.707,1.220382
2086.635,1.21324366667
2088.564,1.20682733333
2090.492,1.19958666667
2092.421,1.1924
2094.349,1.18672833333
2096.278,1.18046133333
2098.206,1.17144466667
2100.135,1.16575466667
2102.063,1.16045666667
2103.992,1.15381633333
2105.92,1.146694
2107.849,1.14216133333
2109.777,1.135355
2111.706,1.12745233333
2113.634,1.119243
2115.563,1.11217833333
2117.491,1.10532333333
2119.42,1.09989166667
2121.348,1.093117
2123.277,1.08707066667
2125.205,1.07980266667
2127.134,1.07214366667
2129.062,1.066167
2130.991,1.06180333333
2132.919,1.05532133333
2134.848,1.0488969
2136.776,1.04218806667
2138.705,1.03597223333
2140.633,1.03003626667
2142.562,1.0248165
2144.49,1.01793233333
2146.419,1.0110309
2148.347,1.00437243333
2150.276,0.998353333333
2152.204,0.9927011
2154.133,0.986037866667
2156.061,0.978610166667
2157.99,0.9731881
2159.918,0.9672408
2161.847,0.960925233333
2163.775,0.954509633333
2165.704,0.9476694
2167.632,0.9413862
2169.561,0.935443633333
2171.489,0.928505566667
2173.418,0.921532633333
2175.346,0.915020833333
2177.275,0.908610733333
2179.203,0.901400633333
2181.132,0.894138233333
2183.06,0.887162333333
2184.989,0.881521233333
2186.917,0.874692866667
2188.846,0.867578366667
2190.774,0.8597028
2192.703,0.852739133333
2194.631,0.846676
2196.56,0.8401197
2198.488,0.8331086
2200.417,0.827526066667
2202.345,0.820784933333
2204.274,0.813502133333
2206.202,0.806671766667
2208.131,0.800559933333
2210.059,0.793694066667
2211.988,0.786863833333
2213.916,0.780835366667
2215.845,0.7752326
2217.773,0.769004133333
2219.702,0.762520133333
2221.63,0.7564628
2223.559,0.750398366667
2225.487,0.743964833333
2227.416,0.737830666667
2229.344,0.731912666667
2231.273,0.726132466667
2233.201,0.7203765
2235.13,0.715250333333
2237.058,0.7090896
2238.987,0.7033293
2240.915,0.697395066667
2242.844,0.6911908
2244.772,0.6851984
2246.701,0.679709133333
2248.629,0.673627566667
2250.558,0.667898666667
2252.486,0.662106566667
2254.415,0.656711266667
2256.343,0.650867733333
2258.272,0.645099366667
2260.2,0.639034266667
2262.129,0.633656866667
2264.057,0.628157766667
2265.986,0.623101766667
2267.914,0.617358766667
2269.843,0.611839366667
2271.771,0.6062209
2273.7,0.600480633333
2275.628,0.594683033333
2277.557,0.589660733333
2279.485,0.584300166667
2281.414,0.5786423
2283.342,0.572897933333
2285.271,0.568401
2287.199,0.5632127
2289.128,0.557788133333
2291.056,0.552540766667
2292.985,0.5476875
2294.913,0.543098566667
2296.842,0.5384054
2298.77,0.533554233333
2300.699,0.528954433333
2302.627,0.524094833333
2304.556,0.519943133333
2306.484,0.515618633333
2308.413,0.511676133333
2310.341,0.507497766667
2312.27,0.503877966667
2314.198,0.4997056
2316.127,0.495351666667
2318.055,0.492188433333
2319.984,0.489337366667
2321.912,0.4845652
2323.841,0.4808704
2325.769,0.477331866667
2327.698,0.4743804
2329.626,0.470448533333
2331.555,0.466498
2333.483,0.461408133333
2335.412,0.457547866667
2337.34,0.454311733333
2339.269,0.451107066667
2341.197,0.446689966667
2343.126,0.440695566667
2345.054,0.4332275
2346.983,0.424802966667
2348.911,0.418911633333
2350.84,0.417181233333
2352.768,0.4159439
2354.697,0.415837433333
2356.625,0.415205566667
2358.554,0.4128324
2360.482,0.4081521
2362.411,0.403721666667
2364.339,0.397346333333
2366.268,0.389957466667
2368.196,0.3820924
2370.125,0.3754648
2372.053,0.3672942
2373.982,0.359738133333
2375.91,0.352782566667
2377.839,0.346835833333
2379.767,0.340090633333
2381.696,0.333631833333
2383.624,0.327857
2385.553,0.322768766667
2387.481,0.3176067
2389.41,0.312758533333
2391.338,0.3085362
2393.267,0.3043982
2395.195,0.299881866667
2397.124,0.295296433333
2399.052,0.2904921
2400.981,0.2865186
2402.909,0.282209666667
2404.838,0.2778945
2406.766,0.273545966667
2408.695,0.2692535
2410.623,0.265042433333
2412.552,0.261147133333
2414.48,0.2570824
2416.409,0.2530089
2418.337,0.248919433333
2420.266,0.245020266667
2422.194,0.240973
2424.123,0.2371056
2426.051,0.233232866667
2427.98,0.229558866667
2429.908,0.225461666667
2431.837,0.221676833333
2433.765,0.217919033333
2435.694,0.214291033333
2437.622,0.2107495
2439.551,0.2075286
2441.479,0.203883333333
2443.408,0.200326133333
2445.336,0.196705433333
2447.265,0.193124266667
2449.193,0.189882333333
2451.122,0.186792966667
2453.05,0.183505433333
2454.979,0.180016733333
2456.907,0.1763777
2458.836,0.1736523
2460.764,0.171205666667
2462.693,0.168329766667
2464.621,0.165093866667
2466.55,0.1626444
2468.478,0.1598907
2470.406,0.157048666667
2472.335,0.154482533333
2474.264,0.152216733333
2476.192,0.150056416667
2478.121,0.14792469
2480.049,0.14509307
2481.978,0.142399906667
2483.906,0.140020606667
2485.834,0.137503546667
2487.763,0.134741083333
2489.692,0.132139493333
2491.62,0.12932623
2493.549,0.126431943333
2495.477,0.123227386667
2497.406,0.120041003333
2499.334,0.116501113333
2501.262,0.113189843333
2503.191,0.10992268
2505.12,0.106630806667
2507.048,0.102947956667
2508.977,0.09939404
2510.905,0.0964680666667
2512.833,0.09381242
2514.762,0.0906569766667
2516.69,0.08729954
2518.619,0.08429534
2520.548,0.0817632733333
2522.476,0.07910699
2524.405,0.07672855
2526.333,0.0743700266667
2528.261,0.0720492666667
2530.19,0.0696802266667
2532.119,0.0679907833333
2534.047,0.06623027
2535.976,0.06440221
2537.904,0.0627963866667
2539.833,0.0613182233333
2541.761,0.0597385753333
2543.689,0.0582633263333
2545.618,0.0566927203333
2547.547,0.055413528
2549.475,0.0541803103333
2551.404,0.0531545066667
2553.332,0.0520323513333
2555.26,0.0510548862667
2557.189,0.0499611671667
2559.117,0.0488244053333
2561.046,0.047586424
2562.975,0.0463989106667
2564.903,0.0453076056667
2566.832,0.044294765
2568.76,0.0431385526667
2570.688,0.0423585316667
2572.617,0.0415553923333
2574.545,0.0405668673333
2576.474,0.0395953166667
2578.403,0.0390436433333
2580.331,0.0381908933333
2582.26,0.03711065
2584.188,0.0359735533333
2586.116,0.03515446
2588.045,0.03418727
2589.973,0.0331167633333
2591.902,0.03213432
2593.831,0.0313277266667
2595.759,0.03021491
2597.688,0.0292285966667
2599.616,0.02806305
2601.544,0.0270341833333
2603.473,0.0259194766667
2605.401,0.0244666333333
2607.33,0.0225453833333
2609.259,0.02056619
2611.187,0.0182683133333
2613.115,0.0159929466667
2615.044,0.0135512066667
2616.972,0.0110722866667
2618.901,0.00815434666667
2620.829,0.00506778733333
2622.758,0.00173215666667
2624.687,-0.00126645933333
2626.615,-0.00449465933333
2628.543,-0.00797528233333
2630.472,-0.0115794103333
2632.4,-0.01509015
2634.329,-0.0187541666667
2636.258,-0.0224751
2638.186,-0.02614681
2640.115,-0.02974431
2642.043,-0.03334955
2643.971,-0.03663571
2645.9,-0.040026933
2647.828,-0.04345276
2649.757,-0.0471463716667
2651.686,-0.050431484
2653.614,-0.0531750776667
2655.542,-0.0559637466667
2657.471,-0.05922593
2659.399,-0.0620945133333
2661.328,-0.0650221233333
2663.256,-0.0677645166667
2665.185,-0.0703627466667
2667.114,-0.0730679
2669.042,-0.0753697266667
2670.97,-0.0776564633333
2672.899,-0.08015012
2674.827,-0.0824317233333
2676.756,-0.08464252
2678.684,-0.0867765966667
2680.613,-0.0889696133333
2682.542,-0.09090327
2684.47,-0.09262783
2686.398,-0.0944492733333
2688.327,-0.0963817066667
2690.255,-0.0981575733333
2692.184,-0.100040556667
2694.112,-0.101975043333
2696.041,-0.104311436667
2697.969,-0.10621756
2699.898,-0.107698896667
2701.826,-0.10964942
2703.755,-0.111551696667
2705.683,-0.11343616
2707.612,-0.11547733
2709.54,-0.117213286667
2711.469,-0.118993216667
2713.397,-0.12103381
2715.326,-0.122802526667
2717.254,-0.124164946667
2719.183,-0.125804043333
2721.111,-0.127687813333
2723.04,-0.129391473333
2724.969,-0.130852496667
2726.897,-0.13263871
2728.825,-0.134220756667
2730.754,-0.135976013333
2732.682,-0.13784026
2734.611,-0.13963191
2736.539,-0.14137144
2738.468,-0.143400436667
2740.396,-0.145390733333
2742.325,-0.147192466667
2744.253,-0.149114533333
2746.182,-0.151461433333
2748.11,-0.153795033333
2750.039,-0.156201233333
2751.967,-0.1585524
2753.896,-0.1611286
2755.824,-0.1636895
2757.753,-0.166411266667
2759.681,-0.1688506
2761.61,-0.1709743
2763.538,-0.173151833333
2765.467,-0.175517733333
2767.395,-0.1778309
2769.324,-0.180465033333
2771.252,-0.182924166667
2773.181,-0.185422
2775.109,-0.187634633333
2777.038,-0.189797333333
2778.966,-0.1918063
2780.895,-0.194030033333
2782.823,-0.196171633333
2784.752,-0.198176566667
2786.68,-0.2001587
2788.609,-0.2021699
2790.537,-0.204207766667
2792.466,-0.2062868
2794.394,-0.2079323
2796.323,-0.209770866667
2798.251,-0.2116294
2800.18,-0.2135406
2802.108,-0.2153881
2804.037,-0.217228533333
2805.965,-0.218910766667
2807.894,-0.220530566667
2809.822,-0.2224548
2811.751,-0.224404666667
2813.679,-0.226081266667
2815.608,-0.227648066667
2817.536,-0.229373433333
2819.465,-0.231066266667
2821.393,-0.232588566667
2823.322,-0.234077866667
2825.25,-0.235584633333
2827.179,-0.237383
2829.107,-0.238936866667
2831.036,-0.2401349
2832.964,-0.2416148
2834.893,-0.2432911
2836.821,-0.244476166667
2838.75,-0.2458453
2840.678,-0.247407266667
2842.607,-0.2487065
2844.535,-0.250035333333
2846.464,-0.251124466667
2848.392,-0.252185733333
2850.321,-0.253596766667
2852.249,-0.254905666667
2854.178,-0.256424833333
2856.106,-0.257777766667
2858.035,-0.259158866667
2859.963,-0.260523166667
2861.892,-0.2619402
2863.82,-0.263087766667
2865.749,-0.2641359
2867.677,-0.265288233333
2869.606,-0.266538766667
2871.534,-0.267809033333
2873.463,-0.268860533333
2875.391,-0.270088666667
2877.32,-0.2715111
2879.248,-0.272807933333
2881.177,-0.274088233333
2883.105,-0.275276633333
2885.034,-0.276187833333
2886.962,-0.277253333333
2888.891,-0.2783731
2890.819,-0.2794805
2892.748,-0.2803576
2894.676,-0.281268666667
2896.605,-0.282371733333
2898.533,-0.2832687
2900.462,-0.284369566667
2902.39,-0.285623933333
2904.319,-0.2867167
2906.247,-0.287734633333
2908.176,-0.288545533333
2910.104,-0.289345833333
2912.033,-0.290083533333
2913.961,-0.291144466667
2915.89,-0.292142266667
2917.818,-0.2928914
2919.747,-0.293905066667
2921.675,-0.294575266667
2923.604,-0.2950863
2925.532,-0.296125833333
2927.461,-0.297185666667
2929.389,-0.298281166667
2931.318,-0.299305566667
2933.246,-0.3001105
2935.175,-0.3013003
2937.103,-0.302441366667
2939.032,-0.303433433333
2940.96,-0.3043068
2942.889,-0.305013866667
2944.817,-0.3059848
2946.746,-0.307146933333
2948.674,-0.3079338
2950.603,-0.308675866667
2952.531,-0.309686333333
2954.46,-0.310493733333
2956.388,-0.3112833
2958.317,-0.312189633333
2960.245,-0.3133223
2962.174,-0.314319866667
2964.102,-0.3149905
2966.031,-0.315944033333
2967.959,-0.316690533333
2969.888,-0.317181466667
2971.816,-0.3179795
2973.745,-0.318748533333
2975.673,-0.3196165
2977.602,-0.320498966667
2979.53,-0.321469133333
2981.459,-0.3223815
2983.387,-0.323258366667
2985.316,-0.324206
2987.244,-0.324967866667
2989.173,-0.325914933333
2991.101,-0.326759266667
2993.03,-0.3275462
2994.958,-0.328104966667
2996.887,-0.3287145
2998.815,-0.3296513
3000.744,-0.330217233333
3002.672,-0.3308798
3004.601,-0.331955766667
3006.529,-0.332758033333
3008.458,-0.3334106
3010.386,-0.334017633333
3012.315,-0.3345837
3014.243,-0.335271066667
3016.172,-0.335845633333
3018.1,-0.3367092
3020.029,-0.3375732
3021.957,-0.3383685
3023.886,-0.339102233333
3025.814,-0.339878133333
3027.743,-0.3403503
3029.671,-0.340436366667
3031.6,-0.3411693
3033.528,-0.342107133333
3035.457,-0.342845366667
3037.385,-0.3435728
3039.314,-0.344230933333
3041.242,-0.344570433333
3043.171,-0.344978733333
3045.099,-0.3457978
3047.028,-0.346706066667
3048.956,-0.347142233333
3050.885,-0.347702966667
3052.813,-0.3484892
3054.742,-0.3490837
3056.67,-0.349404366667
3058.599,-0.3499002
3060.527,-0.350556066667
3062.456,-0.3512129
3064.384,-0.351969466667
3066.313,-0.3528106
3068.241,-0.3535376
3070.17,-0.353973
3072.098,-0.354357766667
3074.027,-0.3549527
3075.955,-0.3553342
3077.884,-0.3557654
3079.812,-0.356432033333
3081.741,-0.356941333333
3083.669,-0.357383766667
3085.598,-0.358192933333
3087.526,-0.359077966667
3089.455,-0.359533533333
3091.383,-0.359786633333
3093.312,-0.360293633333
3095.24,-0.3607205
3097.169,-0.361011066667
3099.097,-0.3615034
3101.026,-0.362046933333
3102.954,-0.362825466667
3104.883,-0.363352766667
3106.811,-0.363580633333
3108.74,-0.363804266667
3110.668,-0.364248833333
3112.597,-0.365137266667
3114.525,-0.365754266667
3116.454,-0.366213466667
3118.382,-0.366810833333
3120.311,-0.367330166667
3122.239,-0.367498866667
3124.167,-0.3677067
3126.096,-0.368312666667
3128.025,-0.368733866667
3129.953,-0.3692538
3131.882,-0.369623433333
3133.81,-0.369933333333
3135.739,-0.370449266667
3137.667,-0.3708378
3139.595,-0.3708329
3141.524,-0.3712982
3143.453,-0.371870666667
3145.381,-0.372533966667
3147.31,-0.373382633333
3149.238,-0.373865033333
3151.167,-0.373775366667
3153.095,-0.373999833333
3155.023,-0.374634066667
3156.952,-0.3755512
3158.881,-0.375775733333
3160.809,-0.375653533333
3162.738,-0.376119133333
3164.666,-0.3767343
3166.594,-0.377245333333
3168.523,-0.377582233333
3170.452,-0.377617666667
3172.38,-0.377905033333
3174.309,-0.3781952
3176.237,-0.378448166667
3178.166,-0.378815266667
3180.094,-0.3791487
3182.022,-0.379687133333
3183.951,-0.380303333333
3185.88,-0.3810132
3187.808,-0.3812109
3189.737,-0.381301766667
3191.665,-0.3818037
3193.594,-0.382392166667
3195.522,-0.3825566
3197.45,-0.382540566667
3199.379,-0.382765966667
3201.308,-0.3829034
3203.236,-0.3835434
3205.165,-0.384347166667
3207.093,-0.3841813
3209.021,-0.383998566667
3210.95,-0.384642966667
3212.878,-0.385327233333
3214.807,-0.3855262
3216.736,-0.385281166667
3218.664,-0.385675733333
3220.593,-0.386027933333
3222.521,-0.386542866667
3224.449,-0.387133066667
3226.378,-0.387316233333
3228.306,-0.3871613
3230.235,-0.3876066
3232.164,-0.387855133333
3234.092,-0.387878966667
3236.021,-0.388225966667
3237.949,-0.388724233333
3239.877,-0.388772233333
3241.806,-0.389115766667
3243.734,-0.3895744
3245.663,-0.3899663
3247.592,-0.390258766667
3249.52,-0.390537233333
3251.448,-0.3908503
3253.377,-0.3912294
3255.305,-0.391382366667
3257.234,-0.391533366667
3259.162,-0.3918567
3261.091,-0.392287066667
3263.02,-0.392303733333
3264.948,-0.3923228
3266.876,-0.392457933333
3268.805,-0.392891033333
3270.733,-0.393334866667
3272.662,-0.393858966667
3274.591,-0.394127633333
3276.519,-0.394047333333
3278.448,-0.394024266667
3280.376,-0.3943216
3282.304,-0.394364566667
3284.233,-0.394749433333
3286.161,-0.395484066667
3288.09,-0.395987733333
3290.019,-0.396093233333
3291.947,-0.396265166667
3293.875,-0.396064533333
3295.804,-0.396252433333
3297.732,-0.396741133333
3299.661,-0.396928566667
3301.589,-0.3969423
3303.518,-0.397096966667
3305.447,-0.397226766667
3307.375,-0.397783633333
3309.303,-0.398253233333
3311.232,-0.398148133333
3313.16,-0.3982811
3315.089,-0.399079733333
3317.017,-0.3992551
3318.946,-0.3995442
3320.875,-0.399878366667
3322.803,-0.4000826
3324.731,-0.399933233333
3326.66,-0.399889233333
3328.588,-0.400132533333
3330.517,-0.4005861
3332.445,-0.400888033333
3334.374,-0.401295366667
3336.302,-0.40137
3338.231,-0.4010414
3340.159,-0.4012001
3342.088,-0.4014502
3344.016,-0.401750666667
3345.945,-0.4023031
3347.873,-0.402229766667
3349.802,-0.402096766667
3351.73,-0.4023163
3353.659,-0.402801433333
3355.587,-0.402896233333
3357.516,-0.4032342
3359.444,-0.403801566667
3361.373,-0.403911233333
3363.302,-0.403885
3365.23,-0.404287666667
3367.158,-0.4044758
3369.087,-0.404782066667
3371.015,-0.405123433333
3372.944,-0.405207033333
3374.872,-0.4049255
3376.801,-0.4050296
3378.729,-0.4054927
3380.658,-0.405900733333
3382.586,-0.4062364
3384.515,-0.406347533333
3386.443,-0.406430666667
3388.372,-0.406770233333
3390.3,-0.4061662
3392.229,-0.406192066667
3394.157,-0.406811566667
3396.086,-0.406982
3398.014,-0.407235433333
3399.943,-0.407765966667
3401.871,-0.407816466667
3403.8,-0.408431133333
3405.728,-0.4086937
3407.657,-0.409007933333
3409.585,-0.409143033333
3411.514,-0.4090591
3413.442,-0.409047233333
3415.371,-0.409340933333
3417.299,-0.409475533333
3419.228,-0.409642866667
3421.156,-0.409863466667
3423.085,-0.410362166667
3425.013,-0.4108254
3426.942,-0.411372733333
3428.87,-0.411568066667
3430.799,-0.411589833333
3432.727,-0.4117226
3434.656,-0.4120222
3436.584,-0.412298733333
3438.513,-0.4126635
3440.441,-0.412916166667
3442.37,-0.4131958
3444.298,-0.413407
3446.227,-0.413848333333
3448.155,-0.414115666667
3450.084,-0.414052366667
3452.012,-0.4140611
3453.941,-0.4142118
3455.869,-0.414373433333
3457.798,-0.414795833333
3459.726,-0.414814533333
3461.655,-0.414969133333
3463.583,-0.415065866667
3465.512,-0.415118133333
3467.44,-0.4147069
3469.369,-0.4150533
3471.297,-0.415610833333
3473.226,-0.415814366667
3475.154,-0.415886866667
3477.083,-0.415992033333
3479.011,-0.4158037
3480.94,-0.416008866667
3482.868,-0.4162002
3484.797,-0.416410066667
3486.725,-0.4162872
3488.654,-0.4162406
3490.582,-0.416388833333
3492.511,-0.416230366667
3494.439,-0.416230366667
3496.368,-0.4163671
3498.296,-0.416533966667
3500.225,-0.416739133333
3502.153,-0.416251366667
3504.082,-0.415918633333
3506.01,-0.416101033333
3507.939,-0.4161944
3509.867,-0.4157584
3511.796,-0.415910433333
3513.724,-0.416164933333
3515.653,-0.416496033333
3517.581,-0.416535833333
3519.51,-0.416226966667
3521.438,-0.415980366667
3523.367,-0.416288133333
3525.295,-0.4168912
3527.224,-0.416728266667
3529.152,-0.416835566667
3531.081,-0.417419533333
3533.009,-0.4174782
3534.938,-0.4174473
3536.866,-0.4173849
3538.795,-0.417725333333
3540.723,-0.418014633333
3542.652,-0.4179165
3544.58,-0.417341833333
3546.509,-0.4171312
3548.437,-0.417803366667
3550.366,-0.4185521
3552.294,-0.4180974
3554.223,-0.418341
3556.151,-0.418953133333
3558.08,-0.4191743
3560.008,-0.4187378
3561.937,-0.4183745
3563.865,-0.418020966667
3565.794,-0.417504566667
3567.722,-0.417427
3569.651,-0.418404133333
3571.579,-0.418820333333
3573.508,-0.4191953
3575.436,-0.4192821
3577.365,-0.419268866667
3579.293,-0.419046133333
3581.222,-0.419005833333
3583.15,-0.418934466667
3585.079,-0.4188316
3587.007,-0.418550366667
3588.936,-0.4189683
3590.864,-0.419554133333
3592.793,-0.4192504
3594.721,-0.418542366667
3596.65,-0.4184797
3598.578,-0.418529566667
3600.507,-0.418871233333
3602.435,-0.41921
3604.364,-0.419431066667
3606.292,-0.419631666667
3608.221,-0.420279
3610.149,-0.420704066667
3612.078,-0.420702066667
3614.006,-0.420284666667
3615.935,-0.4201592
3617.863,-0.4197354
3619.792,-0.419705733333
3621.72,-0.4198489
3623.649,-0.4202123
3625.577,-0.420352766667
3627.506,-0.420033133333
3629.434,-0.419419833333
3631.363,-0.420345333333
3633.291,-0.4207142
3635.22,-0.4212009
3637.148,-0.421723433333
3639.077,-0.421510433333
3641.005,-0.421446866667
3642.934,-0.421813666667
3644.862,-0.421679033333
3646.791,-0.4208723
3648.719,-0.419411366667
3650.648,-0.4195898
3652.576,-0.4212751
3654.505,-0.422521733333
3656.433,-0.4225773
3658.362,-0.422607366667
3660.29,-0.422977333333
3662.219,-0.423174233333
3664.147,-0.422931466667
3666.076,-0.422899933333
3668.004,-0.4222797
3669.933,-0.420937433333
3671.861,-0.421106666667
3673.79,-0.421399666667
3675.718,-0.4207333
3677.647,-0.4221157
3679.575,-0.423071033333
3681.504,-0.4230169
3683.432,-0.422790833333
3685.361,-0.422816566667
3687.289,-0.422426766667
3689.218,-0.421815833333
3691.146,-0.421549433333
3693.075,-0.4219718
3695.003,-0.422233166667
3696.932,-0.4224023
3698.86,-0.422815066667
3700.789,-0.422878266667
3702.717,-0.422999166667
3704.646,-0.4233832
3706.574,-0.4232892
3708.503,-0.422693433333
3710.431,-0.421748466667
3712.36,-0.421757933333
3714.288,-0.422630366667
3716.217,-0.4234922
3718.145,-0.423535833333
3720.074,-0.42311
3722.002,-0.422356433333
3723.931,-0.422374866667
3725.859,-0.422695333333
3727.788,-0.422643366667
3729.716,-0.4227162
3731.645,-0.422221233333
3733.573,-0.421746566667
3735.502,-0.4219207
3737.43,-0.421983233333
3739.359,-0.422432433333
3741.287,-0.422666333333
3743.216,-0.422698966667
3745.144,-0.421969533333
3747.073,-0.4226873
3749.001,-0.422809166667
3750.93,-0.422558266667
3752.858,-0.4224755
3754.787,-0.4238721
3756.715,-0.4243209
3758.644,-0.423846933333
3760.572,-0.4235574
3762.5,-0.424270733333
3764.429,-0.4244734
3766.358,-0.424567233333
3768.286,-0.424780133333
3770.215,-0.423993433333
3772.143,-0.4243518
3774.072,-0.425225733333
3776.0,-0.4253604
3777.928,-0.4251315
3779.857,-0.424594633333
3781.786,-0.4248499
3783.714,-0.425304333333
3785.643,-0.4254459
3787.571,-0.425416233333
3789.5,-0.425552733333
3791.428,-0.4254106
3793.356,-0.4258171
3795.285,-0.4256307
3797.214,-0.424633466667
3799.142,-0.424529566667
3801.071,-0.4241659
3802.999,-0.424392433333
3804.927,-0.425041133333
3806.856,-0.424715833333
3808.785,-0.4252023
3810.713,-0.425461833333
3812.642,-0.425079466667
3814.57,-0.424360733333
3816.499,-0.4238091
3818.427,-0.4245336
3820.355,-0.424093
3822.284,-0.423807666667
3824.213,-0.425247066667
3826.141,-0.4251731
3828.07,-0.424747566667
3829.998,-0.425027933333
3831.927,-0.425348166667
3833.855,-0.425188033333
3835.783,-0.424944033333
3837.712,-0.4241409
3839.641,-0.424483
3841.569,-0.425166566667
3843.498,-0.425245666667
3845.426,-0.4257709
3847.354,-0.425950633333
3849.283,-0.4252967
3851.211,-0.425251566667
3853.14,-0.424223066667
3855.069,-0.424499133333
3856.997,-0.425443766667
3858.926,-0.425933766667
3860.854,-0.4254096
3862.782,-0.425013033333
3864.711,-0.424993433333
3866.639,-0.4252253
3868.568,-0.425382766667
3870.497,-0.425679833333
3872.425,-0.426170633333
3874.354,-0.4256572
3876.282,-0.425884933333
3878.21,-0.4263204
3880.139,-0.425613366667
3882.067,-0.425197266667
3883.996,-0.4255093
3885.925,-0.4256244
3887.853,-0.425652966667
3889.781,-0.4262762
3891.71,-0.426190833333
3893.638,-0.426154433333
3895.567,-0.426322566667
3897.495,-0.426070533333
3899.424,-0.424643566667
3901.353,-0.424442266667
3903.281,-0.4252902
3905.209,-0.426126733333
3907.138,-0.426468166667
3909.066,-0.4265165
3910.995,-0.426205866667
3912.924,-0.426030633333
3914.852,-0.425862033333
3916.781,-0.425636366667
3918.709,-0.425569333333
3920.637,-0.426093766667
3922.566,-0.426429133333
3924.494,-0.4259396
3926.423,-0.4258596
3928.352,-0.426100566667
3930.28,-0.4258153
3932.208,-0.4255632
3934.137,-0.4258894
3936.065,-0.4264222
3937.994,-0.4262264
3939.922,-0.426121066667
3941.851,-0.425870533333
3943.78,-0.425701833333
3945.708,-0.425486166667
3947.636,-0.425934833333
3949.565,-0.426709666667
3951.493,-0.4270549
3953.422,-0.4269282
3955.35,-0.426926266667
3957.279,-0.426650633333
3959.208,-0.426479233333
3961.136,-0.4261331
3963.064,-0.426347433333
3964.993,-0.4269881
3966.921,-0.426947633333
3968.85,-0.4264454
3970.778,-0.426148833333
3972.707,-0.426195766667
3974.635,-0.4265834
3976.564,-0.426827633333
3978.492,-0.4270762
3980.421,-0.427046066667
3982.349,-0.4269709
3984.278,-0.427091266667
3986.206,-0.427062233333
3988.135,-0.426565766667
3990.063,-0.4261684
3991.992,-0.4259868
3993.92,-0.426504766667
3995.849,-0.4265617
3997.777,-0.4267
3999.706,-0.427041833333
4001.634,-0.427111466667
4003.563,-0.426875266667
4005.491,-0.4263794
4007.42,-0.426082433333
4009.348,-0.4266047
4011.277,-0.426806933333
4013.205,-0.427033266667
4015.134,-0.426790633333
4017.063,-0.426711066667
4018.991,-0.427082533333
4020.919,-0.427257266667
4022.848,-0.426727266667
4024.776,-0.426322133333
4026.705,-0.4263525
4028.633,-0.426697233333
4030.562,-0.426682066667
4032.49,-0.426989766667
4034.419,-0.427069966667
4036.347,-0.4270674
4038.276,-0.4265194
4040.204,-0.426417366667
4042.133,-0.426437733333
4044.061,-0.426010233333
4045.99,-0.425936366667
4047.918,-0.426529566667
4049.847,-0.427441066667
4051.775,-0.4275047
4053.704,-0.4267914
4055.632,-0.426898
4057.561,-0.4269354
4059.489,-0.426558366667
4061.418,-0.426668066667
4063.346,-0.427053466667
4065.275,-0.4267159
4067.203,-0.426330533333
4069.132,-0.4263715
4071.06,-0.426749433333
4072.989,-0.4267432
4074.917,-0.426770566667
4076.846,-0.426848966667
4078.774,-0.4266507
4080.703,-0.426340866667
4082.631,-0.4265193
4084.56,-0.4264588
4086.488,-0.4265117
4088.417,-0.4266093
4090.345,-0.426557066667
4092.274,-0.4263116
4094.202,-0.4263178
4096.131,-0.426040566667
4098.059,-0.425837533333
4099.988,-0.4260889
4101.917,-0.426608166667
4103.845,-0.427025733333
4105.773,-0.4270948
4107.702,-0.4265928
4109.63,-0.425986566667
4111.559,-0.4257405
4113.487,-0.426226066667
4115.416,-0.426144333333
4117.344,-0.426424033333
4119.273,-0.426797166667
4121.201,-0.426735833333
4123.13,-0.4263141
4125.058,-0.425987466667
4126.987,-0.4258041
4128.916,-0.4259467
4130.844,-0.425638333333
4132.772,-0.425784033333
4134.701,-0.425687633333
4136.629,-0.4254854
4138.558,-0.425451533333
4140.486,-0.425715233333
4142.415,-0.4259757
4144.343,-0.4263096
4146.272,-0.42597
4148.2,-0.426149133333
4150.129,-0.4264718
4152.057,-0.425870033333
4153.986,-0.425373166667
4155.914,-0.425708233333
4157.843,-0.425523933333
4159.771,-0.425408666667
4161.7,-0.425468233333
4163.628,-0.426129766667
4165.557,-0.426388033333
4167.485,-0.4262026
4169.414,-0.4258502
4171.342,-0.426204866667
4173.271,-0.4263403
4175.199,-0.4257049
4177.128,-0.425424466667
4179.056,-0.425865366667
4180.985,-0.4260977
4182.913,-0.4256072
4184.842,-0.424780466667
4186.77,-0.424747766667
4188.699,-0.424985166667
4190.627,-0.425337166667
4192.556,-0.425328166667
4194.484,-0.425248566667
4196.413,-0.425244933333
4198.341,-0.425510166667
4200.27,-0.425768266667
4202.198,-0.425945166667
4204.127,-0.425744466667
4206.055,-0.424988266667
4207.984,-0.424744433333
4209.912,-0.4250354
4211.841,-0.425010866667
4213.769,-0.424965466667
4215.698,-0.425039566667
4217.626,-0.4253608
4219.555,-0.425391833333
4221.483,-0.425133333333
4223.412,-0.424614766667
4225.34,-0.424599833333
4227.269,-0.424983833333
4229.197,-0.424906733333
4231.125,-0.424554233333
4233.054,-0.4248151
4234.983,-0.425131533333
4236.911,-0.4253949
4238.84,-0.424940333333
4240.768,-0.424693466667
4242.697,-0.424676566667
4244.625,-0.4247812
4246.554,-0.424543333333
4248.482,-0.424987633333
4250.411,-0.425109033333
4252.339,-0.424933666667
4254.268,-0.424728533333
4256.196,-0.424699333333
4258.125,-0.424850833333
4260.053,-0.4250231
4261.982,-0.424605566667
4263.91,-0.4244979
4265.839,-0.4246253
4267.767,-0.424949433333
4269.696,-0.424599866667
4271.624,-0.423934
4273.553,-0.4242466
4275.481,-0.424489333333
4277.41,-0.423944666667
4279.338,-0.424150333333
4281.267,-0.424560166667
4283.195,-0.424672466667
4285.124,-0.424686566667
4287.052,-0.4247149
4288.98,-0.424270433333
4290.909,-0.424044033333
4292.838,-0.4239674
4294.766,-0.423930766667
4296.695,-0.423877966667
4298.623,-0.4239754
4300.552,-0.4244286
4302.48,-0.424640466667
4304.409,-0.4238807
4306.337,-0.4237406
4308.266,-0.4232545
4310.194,-0.423600666667
4312.123,-0.423796733333
4314.051,-0.423828266667
4315.979,-0.423912733333
4317.908,-0.423895133333
4319.836,-0.423931633333
4321.765,-0.4243079
4323.694,-0.4239076
4325.622,-0.4237446
4327.551,-0.423575233333
4329.479,-0.423466433333
4331.408,-0.423997333333
4333.336,-0.4242401
4335.265,-0.423729433333
4337.193,-0.423935066667
4339.122,-0.423627566667
4341.05,-0.423116366667
4342.979,-0.4232867
4344.907,-0.422900966667
4346.835,-0.422885733333
4348.764,-0.423474666667
4350.693,-0.4232144
4352.621,-0.423262733333
4354.55,-0.423205633333
4356.478,-0.422689166667
4358.407,-0.422651266667
4360.335,-0.422942133333
4362.264,-0.422605166667
4364.192,-0.422703933333
4366.121,-0.422961633333
4368.049,-0.423139
4369.978,-0.422812833333
4371.906,-0.422725533333
4373.834,-0.4224316
4375.763,-0.422635633333
4377.691,-0.422395966667
4379.62,-0.4223751
4381.549,-0.422206266667
4383.477,-0.422192833333
4385.406,-0.4228045
4387.334,-0.423177866667
4389.263,-0.4230427
4391.191,-0.422771166667
4393.12,-0.422321266667
4395.048,-0.422255633333
4396.977,-0.422200266667
4398.905,-0.422572566667
4400.833,-0.422452033333
4402.762,-0.422140466667
4404.69,-0.4222501
4406.619,-0.422588533333
4408.547,-0.422146033333
4410.476,-0.4219203
4412.405,-0.421884033333
4414.333,-0.421976866667
4416.262,-0.422134233333
4418.19,-0.4224068
4420.119,-0.4221677
4422.047,-0.422271833333
4423.976,-0.422352033333
4425.904,-0.422643666667
4427.833,-0.422732266667
4429.761,-0.422599166667
4431.689,-0.422234666667
4433.618,-0.421965533333
4435.546,-0.4222068
4437.475,-0.4223298
4439.403,-0.422334466667
4441.332,-0.422719766667
4443.261,-0.422937366667
4445.189,-0.422394866667
4447.118,-0.4219383
4449.046,-0.421971266667
4450.975,-0.421287
4452.903,-0.421508033333
4454.832,-0.421786833333
4456.76,-0.4221224
4458.688,-0.422368933333
4460.617,-0.422215133333
4462.545,-0.422104366667
4464.474,-0.4224419
4466.402,-0.4225299
4468.331,-0.422566433333
4470.26,-0.422119666667
4472.188,-0.421869133333
4474.117,-0.422027033333
4476.045,-0.421659033333
4477.974,-0.420770466667
4479.902,-0.421007466667
4481.831,-0.421215133333
4483.759,-0.421568066667
4485.688,-0.421813233333
4487.616,-0.421623466667
4489.544,-0.421587766667
4491.473,-0.4219831
4493.401,-0.4225587
4495.33,-0.422776933333
4497.258,-0.422054966667
4499.187,-0.421663733333
4501.116,-0.421849233333
4503.044,-0.422101633333
4504.973,-0.4212802
4506.901,-0.421004666667
4508.83,-0.421626766667
4510.758,-0.421625533333
4512.687,-0.4213714
4514.615,-0.421221733333
4516.543,-0.421034666667
4518.472,-0.4201563
4520.4,-0.419397533333
4522.329,-0.420404066667
4524.257,-0.420888633333
4526.186,-0.421033066667
4528.114,-0.4208668
4530.043,-0.421015766667
4531.972,-0.4215294
4533.9,-0.422024833333
4535.829,-0.421691433333
4537.757,-0.4210823
4539.686,-0.4210118
4541.614,-0.420972266667
4543.542,-0.420820966667
4545.471,-0.420504366667
4547.399,-0.4199549
4549.328,-0.420450066667
4551.256,-0.420921866667
4553.185,-0.421104966667
4555.113,-0.421454466667
4557.042,-0.421265566667
4558.971,-0.420619933333
4560.899,-0.420410066667
4562.828,-0.420510133333
4564.756,-0.420806033333
4566.685,-0.420711066667
4568.613,-0.4205063
4570.542,-0.420277033333
4572.47,-0.420411533333
4574.398,-0.4204648
4576.327,-0.420762466667
4578.255,-0.420684133333
4580.184,-0.420475933333
4582.112,-0.4204708
4584.041,-0.420651933333
4585.969,-0.420526533333
4587.898,-0.4208669
4589.827,-0.420329033333
4591.755,-0.4202751
4593.684,-0.420595966667
4595.612,-0.421461133333
4597.541,-0.4218091
4599.469,-0.421255333333
4601.397,-0.420607266667
4603.326,-0.420494166667
4605.254,-0.4197923
4607.183,-0.4200696
4609.111,-0.420267033333
4611.04,-0.420420133333
4612.968,-0.4206247
4614.897,-0.420272366667
4616.825,-0.419989066667
4618.754,-0.420352566667
4620.683,-0.4202131
4622.611,-0.4204074
4624.54,-0.420148533333
4626.468,-0.419858
4628.396,-0.4196451
4630.325,-0.419972633333
4632.253,-0.420551333333
4634.182,-0.420710866667
4636.11,-0.4207799
4638.039,-0.420358466667
4639.967,-0.419521266667
4641.896,-0.4200188
4643.824,-0.4203273
4645.753,-0.419397433333
4647.682,-0.419423766667
4649.61,-0.4199872
4651.539,-0.420257433333
4653.467,-0.419823233333
4655.396,-0.419454533333
4657.324,-0.4198731
4659.252,-0.419978766667
4661.181,-0.419632733333
4663.109,-0.4190976
4665.038,-0.419501233333
4666.966,-0.4197099
4668.895,-0.419750466667
4670.823,-0.419826066667
4672.752,-0.4194953
4674.68,-0.4196763
4676.609,-0.420317033333
4678.538,-0.419489866667
4680.466,-0.419648766667
4682.395,-0.419445933333
4684.323,-0.419538
4686.251,-0.4202664
4688.18,-0.4200528
4690.108,-0.419696433333
4692.037,-0.419736266667
4693.965,-0.419107833333
4695.894,-0.418760633333
4697.822,-0.418663033333
4699.751,-0.419215933333
4701.679,-0.419227433333
4703.608,-0.419068133333
4705.536,-0.419328666667
4707.465,-0.419389833333
4709.394,-0.419367633333
4711.322,-0.4195914
4713.25,-0.419642166667
4715.179,-0.419415566667
4717.107,-0.419438033333
4719.036,-0.4205032
4720.964,-0.4197712
4722.893,-0.418697466667
4724.821,-0.4187718
4726.75,-0.418842766667
4728.678,-0.418972433333
4730.607,-0.419583366667
4732.535,-0.419509233333
4734.464,-0.419217933333
4736.392,-0.418898933333
4738.321,-0.4187417
4740.25,-0.4186439
4742.178,-0.4184313
4744.106,-0.418622166667
4746.035,-0.418730733333
4747.963,-0.418880466667
4749.892,-0.4184819
4751.82,-0.4185365
4753.749,-0.419208533333
4755.677,-0.418939966667
4757.606,-0.418878166667
4759.534,-0.4190957
4761.463,-0.4192082
4763.391,-0.4186418
4765.32,-0.4176801
4767.249,-0.417979633333
4769.177,-0.4187731
4771.105,-0.418993666667
4773.034,-0.418474166667
4774.962,-0.417906466667
4776.891,-0.4182401
4778.819,-0.418260933333
4780.748,-0.418377933333
4782.676,-0.418559866667
4784.605,-0.418713666667
4786.533,-0.418337266667
4788.462,-0.4180868
4790.39,-0.418081933333
4792.319,-0.418663933333
4794.247,-0.419105333333
4796.176,-0.4184622
4798.104,-0.417752133333
4800.033,-0.418413866667
4801.961,-0.418870033333
4803.89,-0.418791233333
4805.818,-0.418953866667
4807.747,-0.418679233333
4809.675,-0.4178355
4811.604,-0.4176576
4813.532,-0.4185968
4815.461,-0.4187107
4817.389,-0.417611133333
4819.318,-0.4172143
4821.246,-0.417373433333
4823.175,-0.417871033333
4825.103,-0.418492333333
4827.032,-0.418458233333
4828.96,-0.418321466667
4830.889,-0.418324133333
4832.817,-0.417645866667
4834.746,-0.4176405
4836.674,-0.417983766667
4838.603,-0.417981866667
4840.531,-0.4178687
4842.46,-0.418166433333
4844.388,-0.418266433333
4846.317,-0.418432833333
4848.245,-0.418394466667
4850.174,-0.418404866667
4852.102,-0.4178817
4854.031,-0.4170143
4855.959,-0.4168483
4857.888,-0.417376966667
4859.816,-0.418101233333
4861.745,-0.4182646
4863.673,-0.417600933333
4865.602,-0.4170778
4867.53,-0.416823966667
4869.458,-0.416499133333
4871.387,-0.416555033333
4873.316,-0.416904233333
4875.244,-0.417198433333
4877.173,-0.4171615
4879.101,-0.417606633333
4881.03,-0.4180158
4882.958,-0.4177325
4884.887,-0.417628066667
4886.815,-0.4177257
4888.744,-0.417566966667
4890.672,-0.417282933333
4892.601,-0.417157066667
4894.529,-0.417108133333
4896.458,-0.417663766667
4898.386,-0.417421933333
4900.315,-0.4172377
4902.243,-0.4170514
4904.172,-0.417143433333
4906.1,-0.416882566667
4908.029,-0.4173671
4909.957,-0.417099466667
4911.886,-0.416728
4913.814,-0.417136066667
4915.743,-0.4170028
4917.671,-0.416338333333
4919.6,-0.416496366667
4921.528,-0.416861333333
4923.457,-0.416841666667
4925.385,-0.416815766667
4927.313,-0.4164552
4929.242,-0.416480466667
4931.171,-0.416952766667
4933.099,-0.4166797
4935.028,-0.4165858
4936.956,-0.416126366667
4938.885,-0.415863433333
4940.813,-0.4157011
4942.742,-0.415264833333
4944.67,-0.415563266667
4946.599,-0.416078533333
4948.527,-0.416414333333
4950.456,-0.4168693
4952.384,-0.417020166667
4954.313,-0.416669066667
4956.241,-0.415901866667
4958.169,-0.416174133333
4960.098,-0.4163911
4962.027,-0.416076133333
4963.955,-0.415915466667
4965.884,-0.415932133333
4967.812,-0.416103333333
4969.741,-0.4161624
4971.669,-0.415919066667
4973.598,-0.41574
4975.526,-0.415446933333
4977.455,-0.415936933333
4979.383,-0.4160591
4981.312,-0.415735766667
4983.24,-0.414574433333
4985.168,-0.4148986
4987.097,-0.416112866667
4989.025,-0.416355666667
4990.954,-0.416251466667
4992.883,-0.416482433333
4994.811,-0.4158335
4996.74,-0.415780733333
4998.668,-0.4155514
5000.597,-0.414732066667
5002.525,-0.414825066667
5004.454,-0.4158594
5006.382,-0.4155828
5008.311,-0.415405533333
5010.239,-0.415474566667
5012.167,-0.415567266667
5014.096,-0.4154414
5016.024,-0.4148968
5017.953,-0.4148915
5019.882,-0.415224666667
5021.81,-0.4147076
5023.739,-0.414846433333
5025.667,-0.415689033333
5027.596,-0.415851
5029.524,-0.4155018
5031.453,-0.415405766667
5033.381,-0.4150236
5035.31,-0.415245
5037.238,-0.415320933333
5039.167,-0.415075866667
5041.095,-0.414691866667
5043.023,-0.414752633333
5044.952,-0.4154204
5046.88,-0.4158479
5048.809,-0.415677966667
5050.738,-0.415506466667
5052.666,-0.415398966667
5054.595,-0.414906633333
5056.523,-0.415135466667
5058.452,-0.4149005
5060.38,-0.414834933333
5062.309,-0.414892466667
5064.237,-0.414869333333
5066.166,-0.4154377
5068.094,-0.415387533333
5070.022,-0.415686033333
5071.951,-0.415246266667
5073.879,-0.4148013
5075.808,-0.414526933333
5077.736,-0.414316566667
5079.665,-0.414703766667
5081.594,-0.414858966667
5083.522,-0.4145957
5085.451,-0.414329
5087.379,-0.414614133333
5089.308,-0.414878466667
5091.236,-0.414667766667
5093.165,-0.413978
5095.093,-0.4139487
5097.021,-0.4140865
5098.95,-0.4143204
5100.878,-0.4152191
5102.807,-0.415740966667
5104.735,-0.414604933333
5106.664,-0.4136054
5108.593,-0.414724666667
5110.521,-0.415319733333
5112.45,-0.4147935
5114.378,-0.413938833333
5116.307,-0.414527533333
5118.235,-0.415090933333
5120.164,-0.414770266667
5122.092,-0.414684133333
5124.021,-0.414619633333
5125.949,-0.414293433333
5127.877,-0.4135909
5129.806,-0.413617233333
5131.734,-0.4139943
5133.663,-0.414444266667
5135.591,-0.414454533333
5137.52,-0.414065466667
5139.449,-0.4133
5141.377,-0.412434166667
5143.306,-0.412672866667
5145.234,-0.413269633333
5147.163,-0.413737633333
5149.091,-0.4130642
5151.02,-0.412759133333
5152.948,-0.413421733333
5154.876,-0.4139405
5156.805,-0.4135302
5158.733,-0.413038166667
5160.662,-0.412827233333
5162.59,-0.4126554
5164.519,-0.412816566667
5166.447,-0.4137544
5168.376,-0.413576066667
5170.305,-0.4133516
5172.233,-0.412311133333
5174.162,-0.411676833333
5176.09,-0.412740933333
5178.019,-0.413562466667
5179.947,-0.413976366667
5181.875,-0.413401666667
5183.804,-0.411333433333
5185.732,-0.4102288
5187.661,-0.411589833333
5189.589,-0.412748566667
5191.518,-0.4129036
5193.446,-0.412927033333
5195.375,-0.412823433333
5197.304,-0.4113269
5199.232,-0.4117588
5201.161,-0.412589266667
5203.089,-0.4115059
5205.018,-0.410725866667
5206.946,-0.4110964
5208.875,-0.411935533333
5210.803,-0.412345233333
5212.731,-0.412199666667
5214.66,-0.412313033333
5216.588,-0.412049266667
5218.517,-0.411450766667
5220.445,-0.411737433333
5222.374,-0.412080266667
5224.302,-0.410851133333
5226.231,-0.410625433333
5228.16,-0.412183266667
5230.088,-0.4113709
5232.017,-0.410136
5233.945,-0.410800866667
5235.874,-0.411381433333
5237.802,-0.411398966667
5239.73,-0.411488433333
5241.659,-0.411352133333
5243.587,-0.410777833333
5245.516,-0.411066666667
5247.444,-0.4108635
5249.373,-0.4106941
5251.301,-0.411140966667
5253.23,-0.410092833333
5255.158,-0.409795933333
5257.087,-0.4106177
5259.016,-0.411563
5260.944,-0.4115228
5262.873,-0.410544266667
5264.801,-0.410355433333
5266.729,-0.411610266667
5268.658,-0.4116933
5270.586,-0.411335833333
5272.515,-0.4116402
5274.443,-0.411810366667
5276.372,-0.411545533333
5278.3,-0.410870666667
5280.229,-0.4110967
5282.157,-0.41115
5284.086,-0.410002066667
5286.014,-0.410258833333
5287.943,-0.411335633333
5289.872,-0.411119366667
5291.8,-0.4103592
5293.729,-0.4103198
5295.657,-0.410415966667
5297.585,-0.410512066667
5299.514,-0.4099155
5301.442,-0.409244833333
5303.371,-0.409158833333
5305.299,-0.409500933333
5307.228,-0.4093161
5309.156,-0.409918266667
5311.085,-0.4106427
5313.013,-0.410624166667
5314.942,-0.410665733333
5316.871,-0.4113516
5318.799,-0.410978466667
5320.728,-0.410319966667
5322.656,-0.410098133333
5324.584,-0.409996533333
5326.513,-0.4097077
5328.441,-0.410295433333
5330.37,-0.4103337
5332.298,-0.409847533333
5334.227,-0.4093737
5336.155,-0.4085879
5338.084,-0.407231866667
5340.012,-0.407849766667
5341.941,-0.408507866667
5343.869,-0.407361133333
5345.798,-0.408030233333
5347.727,-0.409212
5349.655,-0.408776233333
5351.583,-0.408454066667
5353.512,-0.4085637
5355.44,-0.408544833333
5357.369,-0.409483333333
5359.297,-0.4103536
5361.226,-0.4088432
5363.154,-0.4079127
5365.083,-0.4085723
5367.011,-0.409319933333
5368.94,-0.408357433333
5370.868,-0.407397033333
5372.797,-0.407813033333
5374.725,-0.407882266667
5376.654,-0.4073391
5378.583,-0.408430966667
5380.511,-0.408024933333
5382.439,-0.4071864
5384.368,-0.407882366667
5386.296,-0.407701266667
5388.225,-0.4077311
5390.153,-0.408077933333
5392.082,-0.407520733333
5394.01,-0.407284
5395.939,-0.407513
5397.867,-0.4074351
5399.796,-0.408059366667
5401.724,-0.4076695
5403.653,-0.406234466667
5405.582,-0.4068483
5407.51,-0.408213566667
5409.438,-0.4071436
5411.367,-0.406682766667
5413.295,-0.406409666667
5415.224,-0.4059611
5417.152,-0.407216633333
5419.081,-0.4075849
5421.009,-0.4066496
5422.938,-0.406587833333
5424.866,-0.406975833333
5426.795,-0.407817266667
5428.723,-0.406673433333
5430.652,-0.406072166667
5432.58,-0.406702133333
5434.509,-0.406589133333
5436.438,-0.407102733333
5438.366,-0.407138266667
5440.294,-0.405940533333
5442.223,-0.405264466667
5444.151,-0.405211633333
5446.08,-0.405590966667
5448.008,-0.406234666667
5449.937,-0.405930933333
5451.865,-0.406151766667
5453.794,-0.406128966667
5455.722,-0.406075133333
5457.651,-0.406878633333
5459.579,-0.4068296
5461.508,-0.4063933
5463.436,-0.4066233
5465.365,-0.4056575
5467.293,-0.4056486
5469.222,-0.405618133333
5471.15,-0.405785133333
5473.079,-0.404454633333
5475.007,-0.403410366667
5476.936,-0.4048597
5478.864,-0.405706433333
5480.793,-0.405924466667
5482.721,-0.406703166667
5484.65,-0.407115633333
5486.578,-0.4071737
5488.507,-0.405334233333
5490.435,-0.404342533333
5492.364,-0.404303366667
5494.292,-0.404319833333
5496.221,-0.404791066667
5498.149,-0.404416733333
5500.078,-0.402900366667
5502.006,-0.402699533333
5503.935,-0.403234866667
5505.863,-0.404140133333
5507.792,-0.4043862
5509.72,-0.404669733333
5511.649,-0.4054373
5513.577,-0.4060786
5515.506,-0.404334566667
5517.434,-0.4027284
5519.363,-0.403344
5521.291,-0.404007533333
5523.22,-0.4037914
5525.148,-0.404148066667
5527.077,-0.404851233333
5529.005,-0.405073966667
5530.934,-0.403717633333
5532.862,-0.4031394
5534.791,-0.402660133333
5536.719,-0.402084633333
5538.648,-0.401750366667
5540.576,-0.4022414
5542.505,-0.4024347
5544.433,-0.4028383
5546.362,-0.403274766667
5548.29,-0.4038031
5550.219,-0.403851
5552.147,-0.402872933333
5554.076,-0.401097533333
5556.004,-0.4013553
5557.933,-0.402754033333
5559.861,-0.4031375
5561.79,-0.402451233333
5563.718,-0.4018504
5565.646,-0.4018794
5567.575,-0.402564033333
5569.504,-0.401863066667
5571.432,-0.401527266667
5573.361,-0.400368433333
5575.289,-0.399604366667
5577.218,-0.400096833333
5579.146,-0.4007316
5581.075,-0.401682566667
5583.003,-0.402462866667
5584.932,-0.4020017
5586.86,-0.401723233333
5588.789,-0.401285433333
5590.717,-0.401490966667
5592.646,-0.401127266667
5594.574,-0.4004922
5596.502,-0.401226133333
5598.431,-0.401524966667
5600.36,-0.400472533333
5602.288,-0.4007028
5604.217,-0.4002548
5606.145,-0.3991955
5608.074,-0.399102433333
5610.002,-0.4003608
5611.931,-0.400338133333
5613.859,-0.3998475
5615.788,-0.3996095
5617.716,-0.400257433333
5619.645,-0.3992734
5621.573,-0.398911266667
5623.501,-0.3985987
5625.43,-0.3984396
5627.358,-0.3991429
5629.287,-0.400858
5631.216,-0.4008068
5633.144,-0.401190966667
5635.073,-0.400134133333
5637.001,-0.398563933333
5638.93,-0.398235833333
5640.858,-0.398567366667
5642.787,-0.3993293
5644.715,-0.39993
5646.644,-0.398683533333
5648.572,-0.398702066667
5650.5,-0.400213533333
5652.429,-0.400255033333
5654.357,-0.398714
5656.286,-0.3983177
5658.215,-0.398116933333
5660.143,-0.397499666667
5662.072,-0.3979176
5664.0,-0.398394666667
5665.929,-0.397461566667
5667.857,-0.396931433333
5669.786,-0.397147033333
5671.714,-0.397490933333
5673.643,-0.3968466
5675.571,-0.3963039
5677.5,-0.3965334
5679.428,-0.3969128
5681.356,-0.397360633333
5683.285,-0.396027433333
5685.213,-0.394946266667
5687.142,-0.395503133333
5689.071,-0.3953347
5690.999,-0.396018633333
5692.928,-0.396085266667
5694.856,-0.396773066667
5696.785,-0.396255633333
5698.713,-0.3954717
5700.642,-0.396138566667
5702.57,-0.396917366667
5704.499,-0.3964715
5706.427,-0.396673733333
5708.355,-0.3964986
5710.284,-0.396794966667
5712.212,-0.395967033333
5714.141,-0.395406966667
5716.069,-0.394589366667
5717.998,-0.393328433333
5719.927,-0.3930868
5721.855,-0.3938498
5723.784,-0.394439933333
5725.712,-0.3950097
5727.641,-0.394769
5729.569,-0.3938264
5731.498,-0.3936521
5733.426,-0.3931036
5735.354,-0.393547433333
5737.283,-0.393661233333
5739.211,-0.391618066667
5741.14,-0.3908085
5743.068,-0.392754533333
5744.997,-0.394277466667
5746.926,-0.3936286
5748.854,-0.393666333333
5750.783,-0.3922462
5752.711,-0.3909196
5754.64,-0.390401733333
5756.568,-0.390246266667
5758.497,-0.390053833333
5760.425,-0.391728533333
5762.354,-0.392384966667
5764.282,-0.391942666667
5766.21,-0.390409933333
5768.139,-0.3899529
5770.067,-0.390944466667
5771.996,-0.391346266667
5773.924,-0.3911908
5775.853,-0.3912895
5777.782,-0.3907616
5779.71,-0.3897408
5781.639,-0.389247466667
5783.567,-0.389684466667
5785.496,-0.3890999
5787.424,-0.389676333333
5789.353,-0.389295966667
5791.281,-0.388820733333
5793.209,-0.388662733333
5795.138,-0.388966333333
5797.066,-0.388946233333
5798.995,-0.3900207
5800.923,-0.3897479
5802.852,-0.3880093
5804.78,-0.387226933333
5806.709,-0.387193166667
5808.638,-0.387715366667
5810.566,-0.388695933333
5812.495,-0.388440433333
5814.423,-0.3901169
5816.352,-0.3897962
5818.28,-0.387410066667
5820.208,-0.385955233333
5822.137,-0.385501633333
5824.065,-0.384373333333
5825.994,-0.385097
5827.922,-0.386029833333
5829.851,-0.386844433333
5831.779,-0.386498133333
5833.708,-0.3865063
5835.637,-0.385613533333
5837.565,-0.385299966667
5839.494,-0.385025333333
5841.422,-0.384706066667
5843.351,-0.384690966667
5845.279,-0.384276033333
5847.208,-0.383499566667
5849.136,-0.3824592
5851.064,-0.3827095
5852.993,-0.3840356
5854.921,-0.384514133333
5856.85,-0.3849968
5858.778,-0.383806233333
5860.707,-0.384218233333
5862.635,-0.3848286
5864.564,-0.384858866667
5866.493,-0.383342566667
5868.421,-0.382871833333
5870.35,-0.382090466667
5872.278,-0.381471366667
5874.207,-0.3813751
5876.135,-0.381919466667
5878.063,-0.382277433333
5879.992,-0.382102366667
5881.92,-0.3817451
5883.849,-0.382552566667
5885.777,-0.381446933333
5887.706,-0.380683566667
5889.634,-0.380146166667
5891.563,-0.3790701
5893.491,-0.3787381
5895.42,-0.378973
5897.349,-0.379132666667
5899.277,-0.3812286
5901.206,-0.381209366667
5903.134,-0.379398433333
5905.063,-0.3794196
5906.991,-0.3802608
5908.919,-0.379115366667
5910.848,-0.3787835
5912.776,-0.378229633333
5914.705,-0.377827966667
5916.633,-0.3776713
5918.562,-0.377139566667
5920.49,-0.377361
5922.419,-0.3776011
5924.347,-0.3767081
5926.276,-0.376474466667
5928.205,-0.3757975
5930.133,-0.376201466667
5932.062,-0.376102733333
5933.99,-0.376712666667
5935.918,-0.376248666667
5937.847,-0.3741954
5939.775,-0.374940066667
5941.704,-0.3763589
5943.632,-0.375694866667
5945.561,-0.374845
5947.489,-0.3738672
5949.418,-0.3732104
5951.346,-0.374241233333
5953.275,-0.374023033333
5955.204,-0.373286266667
5957.132,-0.372542466667
5959.061,-0.372571733333
5960.989,-0.3730734
5962.917,-0.374128
5964.846,-0.3737275
5966.774,-0.372230433333
5968.703,-0.371492366667
5970.631,-0.371429666667
5972.56,-0.3727639
5974.488,-0.373012566667
5976.417,-0.372860566667
5978.345,-0.371666566667
5980.274,-0.371206066667
5982.202,-0.3710151
5984.131,-0.370612133333
5986.06,-0.370676666667
5987.988,-0.370982066667
5989.917,-0.370540366667
5991.845,-0.369056433333
5993.773,-0.367730933333
5995.702,-0.368147766667
5997.63,-0.369224533333
5999.559,-0.3696749
6001.487,-0.3690925
6003.416,-0.3672558
6005.344,-0.366252633333
6007.273,-0.367197133333
6009.201,-0.367516133333
6011.13,-0.367508333333
6013.058,-0.366589933333
6014.987,-0.3667809
6016.916,-0.366580133333
6018.844,-0.367378066667
6020.772,-0.366501433333
6022.701,-0.3654167
6024.629,-0.3661816
6026.558,-0.366945166667
6028.486,-0.365105133333
6030.415,-0.3636309
6032.343,-0.3623592
6034.272,-0.363749533333
6036.2,-0.363349133333
6038.129,-0.362561266667
6040.057,-0.362339433333
6041.986,-0.3623219
6043.915,-0.3611745
6045.843,-0.3627354
6047.771,-0.363597833333
6049.7,-0.362122333333
6051.628,-0.36083
6053.557,-0.359987766667
6055.485,-0.358552533333
6057.414,-0.359098833333
6059.342,-0.360083433333
6061.271,-0.362010733333
6063.199,-0.361458866667
6065.128,-0.3593158
6067.056,-0.3583218
6068.985,-0.3596941
6070.913,-0.358320566667
6072.842,-0.358648533333
6074.771,-0.358923166667
6076.699,-0.3581532
6078.627,-0.356803133333
6080.556,-0.356608866667
6082.484,-0.355454233333
6084.413,-0.3552165
6086.341,-0.355476666667
6088.27,-0.355336333333
6090.198,-0.3538322
6092.127,-0.352591466667
6094.055,-0.351480833333
6095.984,-0.3522178
6097.912,-0.352918933333
6099.841,-0.353128566667
6101.769,-0.352811266667
6103.698,-0.353130733333
6105.626,-0.3535618
6107.555,-0.354106066667
6109.483,-0.351830666667
6111.412,-0.3493593
6113.34,-0.348384933333
6115.269,-0.3490912
6117.197,-0.349305266667
6119.126,-0.349333466667
6121.054,-0.348390066667
6122.983,-0.3483037
6124.911,-0.348508966667
6126.84,-0.349027733333
6128.768,-0.348838766667
6130.697,-0.3471411
6132.625,-0.344888666667
6134.554,-0.3448121
6136.482,-0.346126233333
6138.411,-0.3473322
6140.339,-0.346985533333
6142.268,-0.349260533333
6144.196,-0.3490068
6146.125,-0.347429966667
6148.053,-0.345112233333
6149.982,-0.344381866667
6151.91,-0.343912633333
6153.839,-0.342244833333
6155.767,-0.341836333333
6157.696,-0.343960566667
6159.624,-0.343366333333
6161.553,-0.344691833333
6163.481,-0.344632366667
6165.41,-0.343546
6167.338,-0.342561466667
6169.267,-0.341442666667
6171.195,-0.3400793
6173.124,-0.340106566667
6175.052,-0.338715433333
6176.981,-0.337721
6178.909,-0.3380754
6180.838,-0.3395731
6182.766,-0.337979866667
6184.695,-0.336233433333
6186.623,-0.336476966667
6188.552,-0.336839133333
6190.48,-0.3343912
6192.409,-0.333156666667
6194.337,-0.333806666667
6196.266,-0.332966033333
6198.194,-0.332481633333
6200.123,-0.333918633333
6202.051,-0.333720466667
6203.979,-0.331724666667
6205.908,-0.3306833
6207.837,-0.3317796
6209.765,-0.331977933333
6211.694,-0.3328683
6213.622,-0.331879
6215.551,-0.331687866667
6217.479,-0.330234
6219.408,-0.329561
6221.336,-0.3269109
6223.265,-0.3267999
6225.193,-0.326842933333
6227.122,-0.326872933333
6229.05,-0.327178233333
6230.979,-0.326316633333
6232.907,-0.325394933333
6234.835,-0.325360466667
6236.764,-0.325748533333
6238.693,-0.3263223
6240.621,-0.324430166667
6242.55,-0.324307166667
6244.478,-0.324785833333
6246.407,-0.3244846
6248.335,-0.3240145
6250.264,-0.3222166
6252.192,-0.321080266667
6254.121,-0.322637066667
6256.049,-0.323403933333
6257.978,-0.324065833333
6259.906,-0.321202033333
6261.834,-0.3186404
6263.763,-0.317779133333
6265.691,-0.317341
6267.62,-0.3160569
6269.549,-0.315099633333
6271.477,-0.313429133333
6273.406,-0.3149188
6275.334,-0.314895566667
6277.263,-0.315673766667
6279.191,-0.3157774
6281.12,-0.313378566667
6283.048,-0.313582766667
6284.977,-0.313434833333
6286.905,-0.3114224
6288.833,-0.311883
6290.762,-0.311912566667
6292.69,-0.3115076
6294.619,-0.3109473
6296.548,-0.3110575
6298.476,-0.310167866667
6300.405,-0.3104993
6302.333,-0.3093759
6304.262,-0.310577233333
6306.19,-0.3104949
6308.119,-0.309038266667
6310.047,-0.308701133333
6311.976,-0.3069872
6313.904,-0.305848166667
6315.833,-0.307442
6317.761,-0.306785033333
6319.689,-0.306717433333
6321.618,-0.30488
6323.546,-0.302865466667
6325.475,-0.301047433333
6327.404,-0.3000844
6329.332,-0.298857333333
6331.261,-0.299774233333
6333.189,-0.300648133333
6335.118,-0.299981533333
6337.046,-0.300013966667
6338.975,-0.300401233333
6340.903,-0.299328433333
6342.832,-0.2996696
6344.76,-0.299127066667
6346.688,-0.296207333333
6348.617,-0.294936533333
6350.545,-0.295666233333
6352.474,-0.2937036
6354.402,-0.291734166667
6356.331,-0.293070266667
6358.26,-0.295047433333
6360.188,-0.293854133333
6362.117,-0.292796866667
6364.045,-0.2909394
6365.974,-0.290924633333
6367.902,-0.292001766667
6369.831,-0.293923166667
6371.759,-0.292714866667
6373.688,-0.2897332
6375.616,-0.2865867
6377.544,-0.288541
6379.473,-0.2885971
6381.401,-0.287628966667
6383.33,-0.285575433333
6385.259,-0.283369433333
6387.187,-0.2823427
6389.116,-0.283440066667
6391.044,-0.282263733333
6392.973,-0.281051866667
6394.901,-0.279637666667
6396.83,-0.2813197
6398.758,-0.2813854
6400.687,-0.280472466667
6402.615,-0.2785276
6404.543,-0.278263766667
6406.472,-0.2783204
6408.4,-0.278107266667
6410.329,-0.275822966667
6412.257,-0.274213366667
6414.186,-0.272789966667
6416.115,-0.274004866667
6418.043,-0.27385
6419.972,-0.2733796
6421.9,-0.270433566667
6423.829,-0.2692396
6425.757,-0.270474566667
6427.686,-0.271275733333
6429.614,-0.2716797
6431.542,-0.272337533333
6433.471,-0.270478733333
6435.399,-0.268567566667
6437.328,-0.265026466667
6439.256,-0.2634711
6441.185,-0.264065866667
6443.113,-0.268066633333
6445.042,-0.2661232
6446.971,-0.2635694
6448.899,-0.263370833333
6450.828,-0.2635562
6452.756,-0.262107533333
6454.685,-0.261659
6456.613,-0.257615166667
6458.542,-0.258506133333
6460.47,-0.257751933333
6462.398,-0.256018866667
6464.327,-0.254775266667
6466.255,-0.254819433333
6468.184,-0.257013433333
6470.112,-0.258343166667
6472.041,-0.255075866667
6473.97,-0.254354933333
6475.898,-0.2523708
6477.827,-0.251707533333
6479.755,-0.2521429
6481.684,-0.251149566667
6483.612,-0.248114333333
6485.541,-0.247522833333
6487.469,-0.246387466667
6489.397,-0.245627266667
6491.326,-0.2460447
6493.254,-0.244855733333
6495.183,-0.242378566667
6497.111,-0.2439947
6499.04,-0.242665133333
6500.968,-0.240773433333
6502.897,-0.239958433333
6504.826,-0.239675233333
6506.754,-0.239193666667
6508.683,-0.2402352
6510.611,-0.2385423
6512.54,-0.237632566667
6514.468,-0.2357631
6516.396,-0.235597333333
6518.325,-0.2371927
6520.253,-0.237877133333
6522.182,-0.2354
6524.11,-0.2340678
6526.039,-0.229578833333
6527.967,-0.2283226
6529.896,-0.232788933333
6531.824,-0.2343511
6533.753,-0.231693733333
6535.682,-0.2313603
6537.61,-0.228104166667
6539.539,-0.225560533333
6541.467,-0.225303566667
6543.396,-0.226107733333
6545.324,-0.225368433333
6547.252,-0.224722433333
6549.181,-0.219740566667
6551.109,-0.219666133333
6553.038,-0.222559933333
6554.966,-0.221798033333
6556.895,-0.2203345
6558.823,-0.218735633333
6560.752,-0.216110166667
6562.68,-0.2149872
6564.609,-0.2136112
6566.538,-0.215034533333
6568.466,-0.214216233333
6570.395,-0.2138005
6572.323,-0.213756033333
6574.251,-0.2142034
6576.18,-0.2126259
6578.108,-0.2106951
6580.037,-0.209451466667
6581.965,-0.2095874
6583.894,-0.2093511
6585.822,-0.210450133333
6587.751,-0.208318966667
6589.679,-0.205714
6591.608,-0.205071366667
6593.537,-0.204897666667
6595.465,-0.204334633333
6597.394,-0.206217666667
6599.322,-0.202088566667
6601.25,-0.1993285
6603.179,-0.197855566667
6605.107,-0.197428033333
6607.036,-0.196751066667
6608.964,-0.1985091
6610.893,-0.1980441
6612.821,-0.195448633333
6614.75,-0.194031033333
6616.678,-0.1949103
6618.607,-0.1948103
6620.535,-0.193946966667
6622.464,-0.1934856
6624.393,-0.1923768
6626.321,-0.188664233333
6628.25,-0.189318766667
6630.178,-0.189336933333
6632.106,-0.187437033333
6634.035,-0.184838733333
6635.963,-0.184322233333
6637.892,-0.180801333333
6639.82,-0.179512466667
6641.749,-0.181068833333
6643.677,-0.179804233333
6645.606,-0.1787455
6647.534,-0.182340933333
6649.463,-0.179666066667
6651.391,-0.178269366667
6653.32,-0.176283033333
6655.249,-0.177315433333
6657.177,-0.175995766667
6659.105,-0.172674033333
6661.034,-0.170221266667
6662.962,-0.1718719
6664.891,-0.1726992
6666.819,-0.1703187
6668.748,-0.164918366667
6670.676,-0.1638899
6672.605,-0.162473
6674.533,-0.1642054
6676.462,-0.165803233333
6678.39,-0.163324866667
6680.319,-0.158657666667
6682.248,-0.159715833333
6684.176,-0.158125066667
6686.104,-0.156594433333
6688.033,-0.157803333333
6689.961,-0.157792466667
6691.89,-0.1587689
6693.818,-0.160845166667
6695.747,-0.156448233333
6697.675,-0.1531392
6699.604,-0.1501221
6701.532,-0.152547633333
6703.461,-0.1523105
6705.389,-0.150228966667
6707.318,-0.148809833333
6709.246,-0.149377133333
6711.175,-0.1459039
6713.104,-0.1431993
6715.032,-0.140380533333
6716.96,-0.138860866667
6718.889,-0.138192033333
6720.817,-0.138463766667
6722.746,-0.138696433333
6724.674,-0.1410593
6726.603,-0.140795466667
6728.531,-0.138767533333
6730.46,-0.134862333333
6732.388,-0.134307866667
6734.317,-0.133323866667
6736.245,-0.133119933333
6738.174,-0.132441566667
6740.102,-0.130698266667
6742.031,-0.127925633333
6743.959,-0.128445566667
6745.888,-0.12815472
6747.816,-0.127534463333
6749.745,-0.125058116667
6751.673,-0.123576633333
6753.602,-0.12143802
6755.53,-0.1218963
6757.459,-0.119330676667
6759.387,-0.116597693333
6761.316,-0.119278606667
6763.244,-0.12162604
6765.173,-0.1168369
6767.101,-0.116964506667
6769.03,-0.11544541
6770.958,-0.115974953333
6772.887,-0.116160516667
6774.815,-0.113784126667
6776.744,-0.111735036667
6778.672,-0.11211412
6780.601,-0.10581548
6782.529,-0.102387856667
6784.458,-0.10449962
6786.386,-0.106954546667
6788.315,-0.10764637
6790.243,-0.107178603333
6792.172,-0.104308903333
6794.1,-0.104314206667
6796.029,-0.100909676667
6797.957,-0.0984882933333
6799.886,-0.0962538666667
6801.814,-0.0949759733333
6803.743,-0.09319329
6805.671,-0.0942074466667
6807.6,-0.0945257233333
6809.528,-0.0965817266667
6811.457,-0.09521892
6813.385,-0.0919864433333
6815.313,-0.0908614966667
6817.242,-0.09152321
6819.171,-0.08849839
6821.099,-0.0897740233333
6823.028,-0.0893740633333
6824.956,-0.0844733966667
6826.885,-0.0781399133333
6828.813,-0.07710574
6830.742,-0.0781282666667
6832.67,-0.07853574
6834.599,-0.07748218
6836.527,-0.0762958
6838.456,-0.0751016866667
6840.384,-0.0750024366667
6842.313,-0.07281832
6844.241,-0.07243505
6846.17,-0.0699640966667
6848.098,-0.0708808533333
6850.027,-0.0714240666667
6851.955,-0.07477804
6853.884,-0.0746059466667
6855.812,-0.06992679
6857.741,-0.06441849
6859.669,-0.0633542733333
6861.598,-0.05969391
6863.526,-0.0608850666667
6865.455,-0.0593819366667
6867.383,-0.0560651066667
6869.312,-0.0535516466667
6871.24,-0.05600461
6873.168,-0.05748222
6875.097,-0.05932052
6877.026,-0.05841056
6878.954,-0.0558265433333
6880.883,-0.0513901866667
6882.811,-0.0502502633333
6884.74,-0.05031417
6886.668,-0.0529161166667
6888.597,-0.0514171833333
6890.525,-0.0507624466667
6892.454,-0.0477729766667
6894.382,-0.0453105966667
6896.311,-0.0431923733333
6898.239,-0.0440010566667
6900.167,-0.0415830866667
6902.096,-0.0367667973333
6904.024,-0.0348498063333
6905.953,-0.04005303
6907.882,-0.0410374
6909.81,-0.03784964
6911.739,-0.033688287
6913.667,-0.030226105
6915.596,-0.0275392368667
6917.524,-0.0284756986667
6919.453,-0.0268734176667
6921.381,-0.0291493486667
6923.31,-0.030483876
6925.238,-0.0279122753333
6927.167,-0.023632276
6929.095,-0.025140507
6931.023,-0.0265173046667
6932.952,-0.0261142616667
6934.881,-0.0188305806667
6936.809,-0.0170960311333
6938.738,-0.0183572156667
6940.666,-0.0189048306667
6942.595,-0.0183475856667
6944.523,-0.020105078
6946.452,-0.0138671206667
6948.38,-0.011899587
6950.309,-0.0129540673333
6952.237,-0.0131159856667
6954.166,-0.009309515
6956.094,-0.00757475133333
6958.022,-0.00370961866667
6959.951,-0.00350698366667
6961.879,-0.00423207766667
6963.808,-0.00465485666667
6965.737,-0.00281543
6967.665,-0.00252971
6969.594,0.00226021
6971.522,0.00369187
6973.451,0.00265423666667
6975.379,-0.00168215666667
6977.308,-0.00051487
6979.236,0.00151052666667
6981.165,0.00607500333333
6983.093,0.00689519
6985.021,0.0122508
6986.95,0.0104221433333
6988.878,0.00859128
6990.807,0.00972626666667
6992.735,0.0173360566667
6994.664,0.0180738666667
6996.593,0.0175040466667
6998.521,0.0194962933333
7000.45,0.0170057466667
7002.378,0.0128845733333
7004.307,0.0166799566667
7006.235,0.0195997866667
7008.164,0.0241603933333
7010.092,0.0230623733333
7012.021,0.0192361466667
7013.949,0.024576
7015.877,0.03098175
7017.806,0.0272200266667
7019.734,0.0273701033333
7021.663,0.03167796
7023.592,0.041503312
7025.52,0.0379258523333
7027.449,0.0302672066667
7029.377,0.0317723966667
7031.306,0.0374680766667
7033.234,0.0402023197667
7035.163,0.044652734
7037.091,0.0457480936667
7039.02,0.0428868456667
7040.948,0.0435033786667
7042.876,0.0516381313333
7044.805,0.05421691
7046.733,0.05329295
7048.662,0.050105984
7050.59,0.0509741976667
7052.519,0.0495609673333
7054.448,0.050852772
7056.376,0.052131314
7058.305,0.054607377
7060.233,0.0578294166667
7062.162,0.0623607866667
7064.09,0.0582694433333
7066.019,0.0529636633333
7067.947,0.0498056756667
7069.875,0.0541504433333
7071.804,0.0594709566667
7073.732,0.0620797666667
7075.661,0.0649598766667
7077.589,0.07122322
7079.518,0.0703079
7081.446,0.0677289733333
7083.375,0.0722522566667
7085.304,0.0764504833333
7087.232,0.0727344366667
7089.161,0.0717236266667
7091.089,0.0731302433333
7093.018,0.0754972
7094.946,0.07724878
7096.875,0.0811849966667
7098.803,0.0801925566667
7100.731,0.07832373
7102.66,0.0765682133333
7104.588,0.0800186333333
7106.517,0.0838123866667
7108.445,0.0894033633333
7110.374,0.0902627333333
7112.302,0.0916635866667
7114.231,0.0939089266667
7116.16,0.0979143
7118.088,0.09597913
7120.017,0.0945453966667
7121.945,0.0898622733333
7123.874,0.09302182
7125.802,0.0968419533333
7127.73,0.0976040966667
7129.659,0.0996848733333
7131.587,0.104895263333
7133.516,0.0995346733333
7135.444,0.0986439666667
7137.373,0.103210713333
7139.301,0.1076043
7141.23,0.107591816667
7143.159,0.11039545
7145.087,0.106564373333
7147.016,0.106584716667
7148.944,0.0990203066667
7150.873,0.09742564
7152.801,0.103736003333
7154.729,0.113581023333
7156.658,0.114484413333
7158.586,0.117991613333
7160.515,0.11947097
7162.443,0.124019683333
7164.372,0.12484537
7166.3,0.127866676667
7168.229,0.12590997
7170.157,0.125694583333
7172.086,0.126323236667
7174.015,0.12960706
7175.943,0.124217873333
7177.872,0.127458403333
7179.8,0.131599636667
7181.729,0.13225177
7183.657,0.125174863333
7185.585,0.124381523333
7187.514,0.128093373333
7189.442,0.140178666667
7191.371,0.144377333333
7193.299,0.144716566667
7195.228,0.140724406667
7197.156,0.139222546667
7199.085,0.134948213333
7201.013,0.13764979
7202.942,0.149936333333
7204.871,0.154515166667
7206.799,0.1490031
7208.728,0.151666866667
7210.656,0.144522066667
7212.584,0.1455747
7214.513,0.1478331
7216.441,0.1538364
7218.37,0.157541533333
7220.298,0.1581026
7222.227,0.1567039
7224.155,0.1577263
7226.084,0.156247166667
7228.012,0.162867666667
7229.941,0.1610562
7231.87,0.161055233333
7233.798,0.161905733333
7235.727,0.166134
7237.655,0.166775166667
7239.583,0.166581433333
7241.512,0.164716766667
7243.44,0.170169066667
7245.369,0.1676505
7247.297,0.167633033333
7249.226,0.172036766667
7251.154,0.1783196
7253.083,0.173356233333
7255.011,0.176451733333
7256.94,0.174544833333
7258.868,0.1759729
7260.797,0.176025433333
7262.726,0.17994
7264.654,0.1806918
7266.583,0.189651866667
7268.511,0.192207066667
7270.439,0.191800433333
7272.368,0.184817633333
7274.296,0.1845865
7276.225,0.1883517
7278.153,0.186462866667
7280.082,0.184236566667
7282.01,0.192349466667
7283.939,0.1976039
7285.867,0.197392966667
7287.796,0.1930813
7289.724,0.1999134
7291.653,0.205296966667
7293.582,0.215499966667
7295.51,0.2115107
7297.438,0.213280366667
7299.367,0.211599066667
7301.295,0.210629666667
7303.224,0.204640266667
7305.152,0.203579166667
7307.081,0.208240633333
7309.009,0.215225766667
7310.938,0.2178676
7312.866,0.215425466667
7314.795,0.209863566667
7316.723,0.214848266667
7318.652,0.218536033333
7320.581,0.2189237
7322.509,0.220749633333
7324.438,0.224572766667
7326.366,0.226277733333
7328.294,0.237913033333
7330.223,0.2397237
7332.151,0.2263833
7334.08,0.216234266667
7336.008,0.2241418
7337.937,0.227661933333
7339.865,0.229623733333
7341.794,0.231917333333
7343.722,0.233068133333
7345.651,0.229909833333
7347.579,0.2324257
7349.508,0.2410748
7351.437,0.246227866667
7353.365,0.2347131
7355.293,0.229143633333
7357.222,0.238142833333
7359.15,0.246504833333
7361.079,0.243000566667
7363.007,0.2440367
7364.936,0.243119333333
7366.864,0.2462229
7368.793,0.241129566667
7370.721,0.240434633333
7372.65,0.241003733333
7374.578,0.251448066667
7376.507,0.254747333333
7378.435,0.252843533333
7380.364,0.256128633333
7382.292,0.270404866667
7384.221,0.2707197
7386.149,0.265961066667
7388.078,0.259726833333
7390.006,0.266602766667
7391.935,0.270664033333
7393.863,0.264072733333
7395.792,0.258876866667
7397.72,0.2626191
7399.649,0.2626076
7401.577,0.267375566667
7403.506,0.272924133333
7405.434,0.269940833333
7407.363,0.2541631
7409.291,0.253642233333
7411.22,0.2581429
7413.148,0.2599378
7415.077,0.259138733333
7417.005,0.272972966667
7418.934,0.287841466667
7420.862,0.287872133333
7422.791,0.278703
7424.719,0.284052066667
7426.648,0.2839889
7428.576,0.2804162
7430.505,0.2797186
7432.433,0.279148033333
7434.362,0.2809294
7436.29,0.285664833333
7438.219,0.281843466667
7440.147,0.2802723
7442.076,0.281929666667
7444.004,0.2861178
7445.933,0.282826566667
7447.861,0.283886866667
7449.79,0.283699766667
7451.718,0.2857525
7453.646,0.284519266667
7455.575,0.2854841
7457.504,0.282987833333
7459.432,0.299955733333
7461.361,0.2983576
7463.289,0.2886452
7465.218,0.294076066667
7467.146,0.305656866667
7469.075,0.298718066667
7471.003,0.3005731
7472.932,0.313459866667
7474.86,0.3082341
7476.789,0.296458933333
7478.717,0.299252133333
7480.646,0.298325433333
7482.574,0.299856833333
7484.503,0.314320933333
7486.431,0.325184833333
7488.36,0.322474166667
7490.288,0.3220063
7492.217,0.3232262
7494.145,0.321756733333
7496.074,0.310269333333
7498.002,0.3221029
7499.931,0.3235746
7501.859,0.3192846
7503.788,0.331199866667
7505.716,0.342177933333
7507.645,0.334890766667
7509.573,0.3323476
7511.501,0.330784833333
7513.43,0.329279633333
7515.359,0.329039466667
7517.287,0.3352482
7519.216,0.334212633333
7521.144,0.323862733333
7523.073,0.3238555
7525.001,0.330826166667
7526.93,0.3362959
7528.858,0.3412551
7530.787,0.335968233333
7532.715,0.338673366667
7534.644,0.346413933333
7536.572,0.350712
7538.5,0.3519428
7540.429,0.358903266667
7542.357,0.3452516
7544.286,0.346354433333
7546.215,0.349937166667
7548.143,0.3485951
7550.072,0.3418344
7552.0,0.342958466667
7553.929,0.348230666667
7555.857,0.353169066667
7557.786,0.349661833333
7559.714,0.3552959
7561.643,0.362959566667
7563.571,0.370836066667
7565.5,0.374961666667
7567.428,0.37524
7569.356,0.3485618
7571.285,0.338104266667
7573.214,0.3496758
7575.142,0.358287566667
7577.071,0.3541914
7578.999,0.351419
7580.928,0.3419935
7582.856,0.3501546
7584.785,0.349601066667
7586.713,0.348649366667
7588.642,0.355369633333
7590.57,0.364041133333
7592.499,0.372252266667
7594.427,0.367889333333
7596.355,0.360822233333
7598.284,0.362092933333
7600.212,0.365820666667
7602.141,0.3754795
7604.07,0.367598
7605.998,0.3632226
7607.927,0.370339066667
7609.855,0.3719303
7611.784,0.367997766667
7613.712,0.380467533333
7615.641,0.3753634
7617.569,0.3758972
7619.498,0.379546566667
7621.426,0.388744566667
7623.354,0.383844966667
7625.283,0.3896675
7627.211,0.3832094
7629.14,0.375192466667
7631.068,0.393329333333
7632.997,0.413417866667
7634.926,0.407577466667
7636.854,0.393443833333
7638.783,0.3890397
7640.711,0.392676266667
7642.64,0.388733
7644.568,0.4147549
7646.497,0.4183514
7648.425,0.400066033333
7650.354,0.378467966667
7652.282,0.388930333333
7654.21,0.4082143
7656.139,0.420886866667
7658.067,0.404227333333
7659.996,0.397467333333
7661.925,0.403301933333
7663.853,0.4096524
7665.782,0.398967266667
7667.71,0.404254333333
7669.639,0.416148733333
7671.567,0.4229376
7673.496,0.407138533333
7675.424,0.402229833333
7677.353,0.400942
7679.281,0.416740666667
7681.209,0.4208935
7683.138,0.4195776
7685.066,0.414468933333
7686.995,0.4235541
7688.923,0.4122137
7690.852,0.4130108
7692.781,0.429871233333
7694.709,0.428705633333
7696.638,0.420118933333
7698.566,0.428933166667
7700.495,0.417001566667
7702.423,0.418153333333
7704.352,0.418643466667
7706.28,0.431067833333
7708.208,0.432608333333
7710.137,0.4195463
7712.065,0.412770766667
7713.994,0.437876533333
7715.922,0.449344366667
7717.851,0.441211533333
7719.779,0.422094966667
7721.708,0.418304533333
7723.637,0.4273524
7725.565,0.4417183
7727.494,0.4423197
7729.422,0.448352433333
7731.351,0.445528333333
7733.279,0.449560966667
7735.208,0.449009233333
7737.136,0.453321666667
7739.064,0.4601212
7740.993,0.461123033333
7742.921,0.452511433333
7744.85,0.457136233333
7746.778,0.4611228
7748.707,0.4699627
7750.635,0.4616138
7752.564,0.438647666667
7754.493,0.42482
7756.421,0.457869
7758.35,0.457276133333
7760.278,0.4327122
7762.207,0.427684966667
7764.135,0.433944266667
7766.063,0.4341425
7767.992,0.457940633333
7769.92,0.468677133333
7771.849,0.472035266667
7773.777,0.4553966
7775.706,0.462541033333
7777.634,0.475626666667
7779.563,0.473236266667
7781.492,0.466645066667
7783.42,0.490860566667
7785.349,0.484910333333
7787.277,0.4720463
7789.206,0.471921566667
7791.134,0.4699442
7793.063,0.468067533333
7794.991,0.4638137
7796.919,0.465041066667
7798.848,0.462980366667
7800.776,0.450805966667
7802.705,0.485844133333
7804.633,0.501470666667
7806.562,0.4941928
7808.49,0.4849094
7810.419,0.5001441
7812.348,0.4943412
7814.276,0.470627266667
7816.205,0.4561646
7818.133,0.472200833333
7820.062,0.462659866667
7821.99,0.460047066667
7823.918,0.455385533333
7825.847,0.471427533333
7827.775,0.504358933333
7829.704,0.4757699
7831.632,0.453523666667
7833.561,0.491810433333
7835.489,0.490945533333
7837.418,0.4922468
7839.346,0.5067657
7841.275,0.520866133333
7843.204,0.495459266667
7845.132,0.505853166667
7847.061,0.533127833333
7848.989,0.5121118
7850.917,0.477157533333
7852.846,0.473441
7854.774,0.489268666667
7856.703,0.501551933333
7858.631,0.4978239
7860.56,0.495728233333
7862.488,0.473595
7864.417,0.474060933333
7866.345,0.480885933333
7868.274,0.493004
7870.203,0.467236033333
7872.131,0.474696433333
7874.06,0.489019633333
7875.988,0.493160666667
7877.917,0.4930728
7879.845,0.486826766667
7881.773,0.463797033333
7883.702,0.4845695
7885.63,0.497026466667
7887.559,0.502832166667
7889.487,0.516648533333
7891.416,0.526598866667
7893.344,0.502838233333
7895.273,0.484918666667
7897.201,0.465108333333
7899.13,0.4906298
7901.059,0.4973288
7902.987,0.489454633333
7904.916,0.465195066667
7906.844,0.450508633333
7908.772,0.4698788
7910.701,0.521530333333
7912.629,0.524667566667
7914.558,0.524547866667
7916.486,0.521488866667
7918.415,0.520057066667
7920.343,0.531033166667
7922.272,0.5384049
7924.2,0.5280842
7926.129,0.527603866667
7928.057,0.545429766667
7929.986,0.5326535
7931.915,0.5040862
7933.843,0.520219933333
7935.771,0.5375211
7937.7,0.544310733333
7939.628,0.537670866667
7941.557,0.565259066667
7943.485,0.549780733333
7945.414,0.5167624
7947.342,0.4843134
7949.271,0.4936515
7951.199,0.5220316
7953.128,0.5654325
7955.056,0.580979
7956.985,0.583734233333
7958.914,0.569295966667
7960.842,0.5419309
7962.771,0.531541333333
7964.699,0.5633583
7966.627,0.5639069
7968.556,0.5441302
7970.484,0.538133366667
7972.413,0.554199566667
7974.341,0.5374109
7976.27,0.509625966667
7978.198,0.5025352
7980.127,0.4990208
7982.055,0.497070266667
7983.984,0.532867366667
7985.912,0.57114
7987.841,0.5731164
7989.77,0.526264166667
7991.698,0.519344966667
7993.626,0.526045133333
7995.555,0.5012447
7997.483,0.4941229
7999.412,0.505745733333
8001.34,0.5083353
8003.269,0.5301182
8005.197,0.533442833333
8007.126,0.530793766667
8009.054,0.5403184
8010.983,0.537728866667
8012.911,0.525010933333
8014.84,0.555433566667
8016.768,0.558720666667
8018.697,0.5451059
8020.625,0.516792433333
8022.554,0.522553033333
8024.482,0.505046433333
8026.411,0.4885523
8028.339,0.501044433333
8030.268,0.537697433333
8032.196,0.505022033333
8034.125,0.517798766667
8036.053,0.552220066667
8037.982,0.584642033333
8039.91,0.591591433333
8041.839,0.607493633333
8043.767,0.556643533333
8045.696,0.542712266667
8047.624,0.508265
8049.553,0.501894533333
8051.481,0.577368133333
8053.41,0.612888833333
8055.338,0.550865033333
8057.267,0.532358933333
8059.195,0.537087533333
8061.124,0.564563766667
8063.052,0.537164
8064.981,0.536268533333
8066.909,0.548680633333
8068.838,0.574256633333
8070.766,0.560517633333
8072.695,0.533979333333
8074.623,0.568648666667
8076.552,0.601757633333
8078.48,0.600686866667
8080.409,0.5873293
8082.337,0.5391416
8084.266,0.543829033333
8086.194,0.541746
8088.123,0.547878833333
8090.051,0.522046566667
8091.979,0.519429933333
8093.908,0.559282366667
8095.837,0.579522866667
8097.765,0.567783633333
8099.694,0.550903466667
8101.622,0.517287333333
8103.551,0.540285266667
8105.479,0.538766433333
8107.408,0.538217966667
8109.336,0.552519533333
8111.265,0.549124933333
8113.193,0.507754666667
8115.122,0.5172203
8117.05,0.546095133333
8118.979,0.508740966667
8120.907,0.450470266667
8122.836,0.4991109
8124.764,0.532150666667
8126.693,0.520912866667
8128.621,0.5063595
8130.55,0.491422033333
8132.478,0.493089133333
8134.407,0.5476725
8136.335,0.5539336
8138.264,0.6025096
8140.192,0.584602066667
8142.121,0.545050266667
8144.049,0.5784431
8145.978,0.589551766667
8147.906,0.560291433333
8149.834,0.523176166667
8151.763,0.535012033333
8153.692,0.557741466667
8155.62,0.526010266667
8157.549,0.540835833333
8159.477,0.551489466667
8161.406,0.526992566667
8163.334,0.4516161
8165.263,0.4686547
8167.191,0.497098
8169.12,0.5053065
8171.048,0.525173133333
8172.977,0.5711643
8174.905,0.5469718
8176.833,0.526021733333
8178.762,0.5254366
8180.69,0.537512133333
8182.619,0.565530233333
8184.548,0.575012233333
8186.476,0.523207166667
8188.405,0.509228766667
8190.333,0.496175933333
8192.262,0.471931066667
8194.19,0.488546466667
8196.118,0.525062933333
8198.047,0.524495933333
8199.976,0.5209707
8201.904,0.5385159
8203.833,0.5678274
8205.761,0.5397717
8207.689,0.507668466667
8209.618,0.4972122
8211.547,0.5223474
8213.476,0.5107752
8215.403,0.5359055
8217.332,0.5627401
8219.261,0.5637787
8221.189,0.5120737
8223.117,0.491152466667
8225.046,0.486377666667
8226.975,0.4634429
8228.903,0.485295433333
8230.832,0.544524766667
8232.76,0.559622266667
8234.688,0.5438141
8236.617,0.492542866667
8238.546,0.446992133333
8240.474,0.413950733333
8242.402,0.446848966667
8244.331,0.4697214
8246.26,0.4959071
8248.188,0.509715333333
8250.116,0.538784766667
8252.045,0.4928257
8253.974,0.4662877
8255.902,0.430760333333
8257.831,0.451680933333
8259.759,0.469863
8261.688,0.504674733333
8263.616,0.4611263
8265.545,0.427152233333
8267.473,0.441142066667
8269.401,0.503569333333
8271.33,0.580022766667
8273.259,0.618337766667
8275.188,0.5602254
8277.115,0.5222503
8279.044,0.593756133333
8280.973,0.576326233333
8282.901,0.561613566667
8284.829,0.600610433333
8286.758,0.479773033333
8288.687,0.470137666667
8290.615,0.461060466667
8292.544,0.444401066667
8294.472,0.4722621
8296.4,0.494974733333
8298.329,0.4622621
8300.258,0.438859633333
8302.187,0.416586933333
8304.114,0.455212
8306.043,0.477393466667
8307.972,0.510386233333
8309.9,0.466262033333
8311.828,0.500883966667
8313.757,0.4816382
8315.686,0.468409166667
8317.614,0.414107133333
8319.543,0.414929733333
8321.471,0.487085033333
8323.399,0.5117361
8325.328,0.392351466667
8327.257,0.393794033333
8329.185,0.445050833333
8331.113,0.390803966667
8333.042,0.2965028
8334.971,0.341050266667
8336.899,0.361716133333
8338.827,0.428452433333
8340.756,0.4705261
8342.685,0.469467533333
8344.613,0.418790433333
8346.542,0.400750066667
8348.47,0.403433466667
8350.398,0.4302862
8352.327,0.3581056
8354.256,0.421753833333
8356.184,0.5033573
8358.112,0.430735366667
8360.041,0.354603166667
8361.97,0.452146
8363.898,0.458468466667
8365.826,0.499140866667
8367.755,0.478181866667
8369.684,0.4553068
8371.612,0.387990966667
8373.54,0.3537858
8375.469,0.3023148
8377.397,0.382658566667
8379.326,0.378982633333
8381.255,0.388547066667
8383.183,0.379877766667
8385.111,0.3390926
8387.04,0.363301833333
8388.969,0.4506577
8390.897,0.461053166667
8392.825,0.423937433333
8394.754,0.419034766667
8396.683,0.408059233333
8398.611,0.4714338
8400.539,0.418523933333
8402.468,0.370573733333
8404.396,0.437388166667
8406.325,0.4101914
8408.254,0.417388
8410.182,0.405163233333
8412.11,0.3239142
8414.039,0.361419266667
8415.968,0.473725766667
8417.896,0.470985233333
8419.824,0.3655768
8421.753,0.2788744
8423.682,0.2887578
8425.61,0.2573781
8427.538,0.2952026
8429.467,0.4188641
8431.396,0.508209333333
8433.324,0.4761925
8435.253,0.452969233333
8437.181,0.5155503
8439.109,0.409090866667
8441.038,0.297352233333
8442.967,0.3961827
8444.895,0.399517033333
8446.823,0.329995266667
8448.752,0.343087266667
8450.681,0.369208533333
8452.609,0.330888766667
8454.537,0.372879233333
8456.466,0.382287133333
8458.395,0.378324866667
8460.323,0.352132366667
8462.251,0.308946133333
8464.18,0.2205847
8466.108,0.2539299
8468.037,0.2617492
8469.966,0.299174566667
8471.894,0.3359985
8473.822,0.4064073
8475.751,0.405807566667
8477.68,0.452351866667
8479.608,0.421513533333
8481.536,0.337134066667
8483.465,0.318843266667
8485.394,0.356934066667
8487.322,0.331538866667
8489.25,0.327299566667
8491.179,0.2933968
8493.107,0.316241366667
8495.036,0.355319966667
8496.965,0.326448266667
8498.893,0.194003156667
8500.821,0.229892433333
