baseline wavenumber (cm-1),baseline absorbance (cm-1),baseline-subtracted absorbance (cm-1)
3199.379,0.155543313454,6.66133814775e-15
3201.308,0.153847613144,0.000870369267722
3203.236,0.152162637603,0.0016041672087
3205.165,0.15048663893,0.00220667957794
3207.093,0.148821354813,0.00194939218024
3209.021,0.147165913854,0.00299884910944
3210.95,0.145519465083,0.00387202384821
3212.878,0.143883715549,0.00394050359601
3214.807,0.142256968415,0.00288606201045
3216.736,0.140640074654,0.00312167607886
3218.664,0.139033864808,0.0035649424296
3220.593,0.137436672684,0.00620024230651
3222.521,0.135850154262,0.00654901686957
3224.449,0.134273478998,0.00661957669755
3226.378,0.132705836776,0.00707026753997
3228.306,0.131148852937,0.0084978669661
3230.235,0.129600912352,0.00796757041373
3232.164,0.128062825139,0.00830177609372
3234.092,0.126535380988,0.00912973576072
3236.021,0.125016995413,0.00867551444216
3237.949,0.123509242686,0.00941252017653
3239.877,0.122011333118,0.0109887679635
3241.806,0.120522497445,0.0104792209421
3243.734,0.1190442793,0.0120276907794
3245.663,0.117575145264,0.0117299189226
3247.592,0.116115864601,0.0117194735173
3249.52,0.114667186145,0.0126430332023
3251.448,0.113228350848,0.0142648261457
3253.377,0.111798620086,0.0137446933677
3255.305,0.110379476213,0.013900822988
3257.234,0.108969447089,0.0155413180988
3259.162,0.10756999464,0.0168634431446
3261.091,0.106179667152,0.0172111142084
3263.02,0.104799193037,0.0185289177481
3264.948,0.103429280277,0.017695757629
3266.876,0.102069210675,0.0177670371768
3268.805,0.100718286462,0.0178044063511
3270.733,0.0993779082844,0.0198998638778
3272.662,0.0980466857084,0.0196016514997
3274.591,0.0967253165051,0.0199900377859
3276.519,0.0954144780158,0.02021121692
3278.448,0.0941128104496,0.0206880588519
3280.376,0.0928216633841,0.0195016965674
3282.304,0.0915403594778,0.0199308828147
3284.233,0.0902682418134,0.0205606270838
3286.161,0.0890066293309,0.023356152434
3288.09,0.0877542133037,0.0259266721709
3290.019,0.0865116506491,0.0277196239896
3291.947,0.085279577855,0.0268507162924
3293.875,0.08405734822,0.0278283285211
3295.804,0.0828443354672,0.0285778822625
3297.732,0.0816417972561,0.0304910239306
3299.661,0.0804484861404,0.0315610155275
3301.589,0.0792656393531,0.0329702850379
3303.518,0.0780920298746,0.0330264377288
3305.447,0.0769282737687,0.0300104707982
3307.375,0.0757749666697,0.0279114782913
3309.303,0.07463150273,0.0302320371467
3311.232,0.0734972965259,0.0312924538026
3313.16,0.0723735240099,0.0335119505681
3315.089,0.071259019443,0.0342746912616
3317.017,0.0701549383508,0.0347000095922
3318.946,0.0690601354211,0.0350756171312
3320.875,0.0679751858639,0.0376151305214
3322.803,0.0669006444601,0.0369758338579
3324.731,0.0658359462155,0.0372172226918
3326.66,0.0647805465602,0.0390443801557
3328.588,0.0637355397394,0.0392448504355
3330.517,0.0626998417212,0.0383786986609
3332.445,0.0616745263242,0.0384745689958
3334.374,0.0606585299432,0.038261918859
3336.302,0.0596529059699,0.0377624382128
3338.231,0.0586566112261,0.0383190281148
3340.159,0.0576706786767,0.0410617584
3342.088,0.0566940855701,0.0407596696104
3344.016,0.0557278444444,0.04113812139
3345.945,0.054770952975,0.041360149825
3347.873,0.0538244032731,0.0421525501283
3349.802,0.0528872134409,0.0429694528889
3351.73,0.0519603551628,0.0431730725133
3353.659,0.0510428669677,0.0433380083987
3355.587,0.0501357001135,0.0443780975212
3357.516,0.0492379135556,0.044472790983
3359.444,0.0483504381251,0.0459440124966
3361.373,0.0474723532044,0.045439301501
3363.302,0.0466041216563,0.0458410415905
3365.23,0.0457461859142,0.0464983304105
3367.158,0.0448980933313,0.0475490915469
3369.087,0.0440594116849,0.0476771697363
3371.015,0.0432310105258,0.0475468121771
3372.944,0.0424120305167,0.0461015649549
3374.872,0.0416033207813,0.0470927269292
3376.801,0.0408040424094,0.0474937439042
3378.729,0.0400150240979,0.0493794972809
3380.658,0.0392354473631,0.0495172060282
3382.586,0.0384661204753,0.0483351531525
3384.515,0.0377062453777,0.0468227144929
3386.443,0.0369566099138,0.0489627269911
3388.372,0.0362164364534,0.0484676836315
3390.3,0.0354864924132,0.0464482088907
3392.229,0.03476602059,0.0437490911052
3394.157,0.0340557679736,0.0443299593083
3396.086,0.0333549977876,0.0448290717566
3398.014,0.032664436595,0.0467902283196
3399.943,0.0319833680461,0.0469077670999
3401.871,0.0313124982774,0.0473213842659
3403.8,0.0306511313657,0.0472802342464
3405.728,0.0299999530207,0.0481027458573
3407.657,0.0293582877462,0.0477947497551
3409.585,0.028726800825,0.0468053936559
3411.514,0.0281048371877,0.0453829824828
3413.442,0.0274930416903,0.0444163892205
3415.371,0.0268907796902,0.0430753579829
3417.299,0.0262986756165,0.043026099477
3419.228,0.0257161152536,0.0410993097944
3421.156,0.0251437026038,0.0383390629881
3423.085,0.024580843878,0.0369348743066
3425.013,0.024028122652,0.0381784880829
3426.942,0.0234849655634,0.0373600763855
3428.87,0.0229519357612,0.0359548670287
3430.799,0.0224284803098,0.0345451373997
3432.727,0.0219151419313,0.0351919034543
3434.656,0.0214113881171,0.0361343512946
3436.584,0.0209177411625,0.0350000795188
3438.513,0.0204336889854,0.0299473885441
3440.441,0.0199597334546,0.0279913430642
3442.37,0.0194953829147,0.0261596256772
3444.298,0.0190411188076,0.0274473073523
3446.227,0.018596469905,0.0247245651703
3448.155,0.0181618972217,0.024417199109
3450.084,0.0177369499562,0.0271377088935
3452.012,0.0173220686967,0.0290582001802
3453.941,0.0169168230685,0.0280240442114
3455.869,0.0165216332328,0.0287290490679
3457.798,0.0161360892417,0.028868964837
3459.726,0.0157605908297,0.027622104005
3461.655,0.0153947484758,0.0264262360587
3463.583,0.0150389414877,0.0279596433703
3465.512,0.014692800771,0.0272843547936
3467.44,0.0143566852066,0.0266273439049
3469.369,0.0140302461271,0.026304333879
3471.297,0.0137138219865,0.026786531799
3473.226,0.0134070845442,0.0258590632371
3475.154,0.0131103518274,0.0239350337988
3477.083,0.0128233160223,0.0242463291814
3479.011,0.0125462747293,0.025443718195
3480.94,0.0122789405613,0.0246825473594
3482.868,0.0120215906921,0.0263242093685
3484.797,0.0117739581613,0.0287521714252
3486.725,0.0115362997159,0.0288948131922
3488.654,0.0113083688223,0.0279931575094
3490.582,0.0110904018007,0.0290728449394
3492.511,0.0108821725443,0.0318333839098
3494.439,0.0106838969465,0.0347219455684
3496.368,0.0104953693272,0.0340967665264
3498.296,0.0103167851532,0.0351330278459
3500.225,0.0101479591712,0.0354256787546
3502.153,0.00998906642095,0.0338626469117
3504.082,0.00983994207607,0.0342376885719
3506.01,0.00970074074964,0.0388750198892
3507.939,0.00957131804194,0.0388523148298
3509.867,0.0094518081393,0.0396460388232
3511.796,0.00934208706879,0.0433613395965
3513.724,0.00924226858994,0.0455378789892
3515.653,0.00915224915661,0.0426333568274
3517.581,0.00907212210156,0.0409339427928
3519.51,0.00900180430542,0.041934211059
3521.438,0.00894136867415,0.0418046133333
3523.367,0.00889075251519,0.0371049009772
3525.295,0.00885000830771,0.0373735841314
3527.224,0.00881909378594,0.0371836354165
3529.152,0.00879804100225,0.039374404161
3531.081,0.00878682811767,0.0463976457527
3533.009,0.00878546675777,0.0510376404898
3534.938,0.00879395551037,0.0499723438933
3536.866,0.00881228557426,0.0508516181961
3538.795,0.00884047596404,0.0512661650953
3540.723,0.00887849745173,0.0503214418993
3542.652,0.0089263894787,0.0461362810965
3544.58,0.00898410239017,0.0415202946582
3546.509,0.00905169605432,0.0412914758854
3548.437,0.00912910038959,0.0461913281963
3550.366,0.00921639569092,0.0483515816668
3552.294,0.00931349144998,0.0472067754054
3554.223,0.0094204883885,0.0500559090642
3556.151,0.00953727557135,0.0547425182222
3558.08,0.00966397414705,0.0571939051615
3560.008,0.00980045275369,0.0579782796834
3561.937,0.00994685296658,0.0594956821593
3563.865,0.010103022997,0.058535408217
3565.794,0.0102691248471,0.0453686998775
3567.722,0.0104449863013,0.0386948095139
3569.651,0.0106307897886,0.048634347177
3571.579,0.0108263426666,0.0538158285656
3573.508,0.011031847791,0.0514921590825
3575.436,0.0112470920928,0.0505703545866
3577.365,0.0114722988544,0.0494136811314
3579.293,0.01170723458,0.0488057544021
3581.222,0.0119521429788,0.0512010966856
3583.15,0.0122067701282,0.0528690410514
3585.079,0.0124713801642,0.0476438528288
3587.007,0.0127456987374,0.0384389772962
3588.936,0.0130300104106,0.0484265750539
3590.864,0.0133240204075,0.0635111155472
3592.793,0.0136280337179,0.0671417024592
3594.721,0.0139417351387,0.0771499458479
3596.65,0.0142654500862,0.0926015265639
3598.578,0.0145988429308,0.0961380417352
3600.507,0.0149422595155,0.0848990424152
3602.435,0.0152953437838,0.0690036555086
3604.364,0.0156584620058,0.0562226660646
3606.292,0.0160312376979,0.0431348393263
3608.221,0.016414057557,0.0316628655199
3610.149,0.0168065246729,0.0347127313667
3612.078,0.0172090461692,0.0308931473009
3614.006,0.0176212047089,0.0277376348746
3615.935,0.0180434278424,0.0329785068589
3617.863,0.0184752778059,0.0265666710469
3619.792,0.0189172025765,0.0211505220773
3621.72,0.0193687439638,0.03173304518
3623.649,0.0198303703717,0.036558490439
3625.577,0.0203016031827,0.0314460972115
3627.506,0.0207829312278,0.0171039584922
3629.434,0.0212738554626,0.00472988455555
3631.363,0.0217748851449,0.0216937290268
3633.291,0.0222855008035,0.0269599252553
3635.22,0.0228062321229,0.0295696902464
3637.148,0.0233365392054,0.0329441643224
3639.077,0.0238769721619,0.0336414752251
3641.005,0.0244269706682,0.0329898897382
3642.934,0.024987105262,0.0303767884002
3644.862,0.025556795192,0.0275196224771
3646.791,0.0261366314229,0.00842770699817
3648.719,0.0267260127768,-0.0158031380168
3650.648,0.0273255506449,-0.00794467527848
3652.576,0.0279346234225,0.0191663570687
3654.505,0.0285538629278,0.0219500287127
3656.433,0.0291826271292,0.0173618993036
3658.362,0.0298215682717,0.0257652102585
3660.29,0.0304700238969,0.0295628276142
3662.219,0.0311286666766,0.0308126049296
3664.147,0.0317968137256,0.0324238473479
3666.076,0.0324751581425,0.0275844799855
3668.004,0.0331629966153,0.0162461815915
3669.933,0.0338610426693,0.000762428471881
3671.861,0.0345685725659,0.00976833231635
3673.79,0.0352863202571,0.00347846292289
3675.718,0.0360135415775,-0.0185744432251
3677.647,0.0367509909059,-0.00142500283355
3679.575,0.0374979036501,0.00906936613664
3681.504,0.0382550546157,0.0176117198713
3683.432,0.0390216587836,0.022103379122
3685.361,0.0397985113864,0.0172741662644
3687.289,0.0405848069782,0.00484226266705
3689.218,0.0413813612181,-0.012270879059
3691.146,0.0421873482337,-0.00770488588654
3693.075,0.0430036041108,0.00297082225125
3695.003,0.0438292825501,0.00857949133039
3696.932,0.0446652400645,0.00874980087355
3698.86,0.0455106099276,0.00790443101045
