baseline wavenumber (cm-1),baseline absorbance (cm-1),baseline-subtracted absorbance (cm-1)
3199.379,0.157906095219,1.42108547152e-14
3201.308,0.156449100059,0.0033750180043
3203.236,0.154999892862,0.00436228241384
3205.165,0.1535569703,0.00559546071208
3207.093,0.152121828405,0.00339217139275
3209.021,0.150693717338,0.000846765831492
3210.95,0.149271901849,0.000776617305703
3212.878,0.147857856085,0.00448369854928
3214.807,0.146450113194,0.00668846964222
3216.736,0.145049408426,0.00478026912355
3218.664,0.14365646244,0.00385592005298
3220.593,0.14226983027,0.00530522279804
3222.521,0.140890949586,0.00541552974286
3224.449,0.13951909973,0.00487491624076
3226.378,0.138153574633,0.00116614638194
3228.306,0.13679579008,-0.000666708911292
3230.235,0.135444337581,0.00105672377594
3232.164,0.134099923205,0.00211912056369
3234.092,0.132763238429,0.00109959387675
3236.021,0.131432896651,0.00172994576285
3237.949,0.130110277178,0.00495744747582
3239.877,0.128794688533,0.00798636878027
3241.806,0.127485453828,0.00423697617329
3243.734,0.126183930485,0.00160794255611
3245.663,0.124888768378,0.00190593494742
3247.592,0.123600644394,0.00500998938728
3249.52,0.122320220829,0.00526190794862
3251.448,0.121046828092,0.00427915997995
3253.377,0.119779811181,0.00451514484838
3255.305,0.118520483747,0.00465651008705
3257.234,0.117267539434,0.00573711031868
3259.162,0.116022277302,0.00680143643478
3261.091,0.114783405587,0.00506396123813
3263.02,0.113551571995,0.00488570688919
3264.948,0.112327409641,0.00597745238283
3266.876,0.111110278115,0.00717436759431
3268.805,0.109899551595,0.00966832468071
3270.733,0.108696485372,0.0087870888723
3272.662,0.107499831451,0.00385061836223
3274.591,0.106310215653,0.00229586945798
3276.519,0.105128249207,0.00224464071539
3278.448,0.103952706007,0.00452348928288
3280.376,0.102784804863,0.00596784852779
3282.304,0.101623934548,0.00656973774526
3284.233,0.100469498421,0.00648744082907
3286.161,0.0993226934084,0.00449161974231
3288.09,0.098182329879,0.0020698686452
3290.019,0.0970490044729,0.00501255420495
3291.947,0.0959232992378,0.00465893062168
3293.875,0.0948046248307,0.0058928380218
3295.804,0.0936924064973,0.00796987996787
3297.732,0.0925877973929,0.00807731935629
3299.661,0.0914896516575,0.00957473730438
3301.589,0.0903991078558,0.00846069200266
3303.518,0.0893150347184,0.00315287188223
3305.447,0.0882379997043,0.00242004133487
3307.375,0.08716855568,0.00666546837743
3309.303,0.0861061424837,0.00901717703513
3311.232,0.0850502145423,0.00744498408302
3313.16,0.0840018666487,0.00527944336846
3315.089,0.0829600113053,0.0035390284198
3317.017,0.0819257287144,0.00459352732521
3318.946,0.0808979459689,0.00524932988268
3320.875,0.0798772013467,0.00573029890596
3322.803,0.0788640185333,0.00291046847771
3324.731,0.0778578665479,0.00346680746405
3326.66,0.0768582289984,0.00649767921955
3328.588,0.0758661423157,0.00790369494301
3330.517,0.0748805773641,0.00731238735838
3332.445,0.0739025559841,0.00862347252087
3334.374,0.0729310636306,0.0065923367535
3336.302,0.0719671075533,0.00515560547611
3338.231,0.0710096877978,0.00745235607162
3340.159,0.0700597970232,0.00706544304556
3342.088,0.0691164498656,0.00410148200538
3344.016,0.0681806243937,0.00667381814138
3345.945,0.0672513498342,0.00954284808353
3347.873,0.066329589665,0.0106015737839
3349.802,0.0654143877034,0.00915449938844
3351.73,0.064506692837,0.00898517009642
3353.659,0.0636055634734,0.00863794203556
3355.587,0.0627119339096,0.00933395712444
3357.516,0.061824877144,0.00930470943233
3359.444,0.060945312883,0.00918609316171
3361.373,0.0600723287154,0.00945006085301
3363.302,0.0592063826711,0.0100587542945
3365.23,0.0583479181874,0.011784498673
3367.158,0.0574964845318,0.00996788421381
3369.087,0.0566516455602,0.00983576978403
3371.015,0.0558142772072,0.014065941129
3372.944,0.0549835108336,0.0116863567496
3374.872,0.0541602077834,0.00921844378847
3376.801,0.0533435140077,0.00992799109691
3378.729,0.0525342762602,0.0130919240835
3380.658,0.0517316550825,0.0132167933153
3382.586,0.0509364826377,0.0153305748777
3384.515,0.0501479340581,0.0152493165232
3386.443,0.0493668269159,0.0122125726595
3388.372,0.0485923509343,0.00984947662056
3390.3,0.0478253090949,0.0123399592767
3392.229,0.0470649057112,0.0126601524107
3394.157,0.0463119291745,0.0148515197288
3396.086,0.0455655983888,0.0150277504437
3398.014,0.0448266871548,0.0154861603131
3399.943,0.0440944289671,0.0155153961618
3401.871,0.0433695830358,0.0158338941703
3403.8,0.0426513974461,0.0183270721789
3405.728,0.0419406168175,0.0165987544551
3407.657,0.0412365038258,0.0160984805065
3409.585,0.0405397885,0.0192797808925
3411.514,0.0398497481062,0.0184475327995
3413.442,0.0391670980831,0.0181522186055
3415.371,0.0384911302873,0.0203474424409
3417.299,0.0378225455669,0.0210084460434
3419.228,0.0371606503691,0.0176412297482
3421.156,0.0365061309514,0.015609506368
3423.085,0.0358583083516,0.0127098711693
3425.013,0.0352178542366,0.0128423903808
3426.942,0.0345841042348,0.014720959952
3428.87,0.0339577154224,0.0163889943724
3430.799,0.0333380380187,0.0180710391066
3432.727,0.032725714509,0.0203825438555
3434.656,0.0321201097032,0.0214273480952
3436.584,0.0315218514963,0.0192847794549
3438.513,0.0309303192885,0.0171203225795
3440.441,0.0303461263843,0.0193764046983
3442.37,0.0297686667745,0.0172378024462
3444.298,0.029198539173,0.014852810266
3446.227,0.0286351521611,0.0146282664176
3448.155,0.0280790898624,0.0177472519955
3450.084,0.0275297754485,0.0205678693508
3452.012,0.0269877784524,0.0197376839958
3453.941,0.0264525366366,0.0168952850555
3455.869,0.0259246049432,0.0202332844736
3457.798,0.0254034357253,0.0251641373061
3459.726,0.0248895693347,0.0233682897576
3461.655,0.0243824727148,0.0192226015802
3463.583,0.0238826716268,0.0204127898106
3465.512,0.0233896476049,0.0227409497872
3467.44,0.0229039118197,0.0239049429261
3469.369,0.0224249603958,0.0246224468619
3471.297,0.0219532899132,0.0273957447577
3473.226,0.0214884110873,0.0270236681606
3475.154,0.0210308059075,0.025087156288
3477.083,0.0205799996796,0.0290778391964
3479.011,0.0201364598024,0.0312256143914
3480.94,0.0196997261725,0.0279354704312
3482.868,0.0192702515981,0.0280182352108
3484.797,0.0188475905661,0.0314187593783
3486.725,0.0184321812944,0.0307460255185
3488.654,0.0180235928605,0.0280984125979
3490.582,0.0176222488915,0.0310919935021
3492.511,0.0172277330555,0.0346220597273
3494.439,0.0168404543892,0.0342143318233
3496.368,0.0164600111512,0.0321561821167
3498.296,0.0160867977876,0.0348532608397
3500.225,0.0157204271476,0.0355390492498
3502.153,0.0153612790868,0.0329309477403
3504.082,0.0150089810448,0.0324013090594
3506.01,0.0146638982866,0.0383316541242
3507.939,0.0143256728426,0.0426353096703
3509.867,0.0139946553871,0.0444284720768
3511.796,0.0136705025411,0.0451958676196
3513.724,0.0133535503883,0.0435402128786
3515.653,0.0130434701403,0.0404893308301
3517.581,0.0127405832902,0.0421992731739
3519.51,0.0124445756402,0.0458714053565
3521.438,0.0121557540928,0.0465913398119
3523.367,0.0118738190408,0.0489722337238
3525.295,0.0115990627962,0.0504215578447
3527.224,0.0113312003421,0.0462544662909
3529.152,0.0110705094002,0.046629884818
3531.081,0.0108167195441,0.0474886478874
3533.009,0.0105700939049,0.0489846417668
3534.938,0.0103303766468,0.0464289481283
3536.866,0.0100978163103,0.0451791471993
3538.795,0.00987217165016,0.0456686147645
3540.723,0.00965367661635,0.0468008872167
3542.652,0.00944210455424,0.0449792034413
3544.58,0.00923767482315,0.0368090248635
3546.509,0.00904017535902,0.0320767760207
3548.437,0.00884981093063,0.0359545962259
3550.366,0.0086663840645,0.0367055961235
3552.294,0.00849008493882,0.0369127251289
3554.223,0.00832073067068,0.0451499051324
3556.151,0.0081584968477,0.0528770838659
3558.08,0.00800321517755,0.0581016064135
3560.008,0.00785504665728,0.0656600650379
3561.937,0.00771383758511,0.0760155670444
3563.865,0.00757973436755,0.0820978154151
3565.794,0.00745259789338,0.0757420852159
3567.722,0.00733255997852,0.0669199417904
3569.651,0.00721949610234,0.073508291222
3571.579,0.00711352349019,0.0815901053383
3573.508,0.00701453221199,0.0797432763395
3575.436,0.00692262490256,0.0665732812937
3577.365,0.00683770622235,0.0532851078886
3579.293,0.00675986421562,0.050708042385
3581.222,0.0066890181334,0.0495957286573
3583.15,0.00662524142937,0.0455914774628
3585.079,0.00656846794514,0.0423474321863
3587.007,0.00651875654383,0.0401864895898
3588.936,0.00647605565759,0.048049366358
3590.864,0.00644040955898,0.0624694256781
3592.793,0.00641178127072,0.0785017939845
3594.721,0.00639020047483,0.0978380417166
3596.65,0.00637564478456,0.115530753679
3598.578,0.00636812929137,0.116843232277
3600.507,0.0063676461991,0.0946937103156
3602.435,0.00637419600861,0.0675053147566
3604.364,0.00638778551432,0.0489892487523
3606.292,0.00640840062655,0.033928201011
3608.221,0.00643606273025,0.0227340575568
3610.149,0.00647074314518,0.0204154390038
3612.078,0.00651247784687,0.0191010873002
3614.006,0.00656122356451,0.0158333988958
3615.935,0.00661703086419,0.0144630257415
3617.863,0.00667984188454,0.0104848199976
3619.792,0.00674972178221,0.00370009121688
3621.72,0.00682659810526,0.0112493141559
3623.649,0.00691055060092,0.0163169840195
3625.577,0.00700149222669,0.0173354126556
3627.506,0.00709951732033,0.0170700975589
3629.434,0.0072045242488,0.00291171955995
3631.363,0.00731662194044,0.00650223988105
3633.291,0.00743569417162,0.00971734332965
3635.22,0.00756186446124,0.00966799503537
3637.148,0.00769500199512,0.0164826994099
3639.077,0.00783524488274,0.0159735087815
3641.005,0.00798244771933,0.0147957793099
3642.934,0.00813676320494,0.0140486203996
3644.862,0.00829803134424,0.0124353154666
3646.791,0.00846641942783,0.00278395962807
3648.719,0.00864175286984,-0.00408600638242
3650.648,0.00882421355142,-0.00412644745418
3652.576,0.00901361229613,0.00543296609263
3654.505,0.00921014557571,0.0122803022157
3656.433,0.00941360962313,0.0090438855755
3658.362,0.00962421550069,0.0101200481201
3660.29,0.00984174485082,0.0148959484677
3662.219,0.0100664233264,0.0161020796555
3664.147,0.0102980179792,0.0144745484819
3666.076,0.0105367690527,0.0103391027758
3668.004,0.0107824290083,0.0059303982433
3669.933,0.0110352526798,-0.00168369096952
3671.861,0.0112949779381,-0.00100588463978
3673.79,0.0115618742076,0.00118501753405
3675.718,0.0118356647685,-0.00915346523352
3677.647,0.0121166336361,-0.00444403685044
3679.575,0.0124044894997,0.000765428624207
3681.504,0.0126995309652,0.00172986355616
3683.432,0.0130014521316,0.00466406894392
3685.361,0.0133105661951,0.00450152316104
3687.289,0.0136265526642,-0.00113590270964
3689.218,0.0139497393256,-0.0130440484331
3691.146,0.0142797910974,-0.00847922504061
3693.075,0.0146170503569,-0.000200291032106
3695.003,0.0149611674314,0.00483919646228
3696.932,0.0153124992888,0.0066535373027
3698.86,0.015670681666,0.0062953549255
