baseline wavenumber (cm-1),baseline absorbance (cm-1),baseline-subtracted absorbance (cm-1)
3199.379,0.171230870312,6.55031584529e-15
3201.308,0.16979898875,-0.000611583514098
3203.236,0.168374882131,-0.000285475480249
3205.165,0.166957073167,0.000183228055894
3207.093,0.165547031851,-2.47939051713e-05
3209.021,0.164144021363,0.000323127125627
3210.95,0.162747319472,0.000184551548243
3212.878,0.161358374286,-0.000625633964945
3214.807,0.159975744993,-0.00232119126798
3216.736,0.158600153823,-0.00157417585837
3218.664,0.157232308415,-0.00215260559453
3220.593,0.155870789842,-0.00382201798355
3222.521,0.154517009737,-0.00403717551105
3224.449,0.15317026046,-0.00272732100797
3226.378,0.151829848961,-0.00263865316553
3228.306,0.150497164986,-0.000929996280936
3230.235,0.149170826084,-0.000332960927311
3232.164,0.147851525306,-0.00144927118712
3234.092,0.146539941109,-0.00180704916535
3236.021,0.145234712929,-0.0016905908223
3237.949,0.143937194034,-0.0025208895768
3239.877,0.142646705968,-0.000610367142736
3241.806,0.141362584861,-0.000552112809602
3243.734,0.140086162097,-0.000196644256025
3245.663,0.138816113587,-0.000440443921873
3247.592,0.137553103201,-0.00186231173223
3249.52,0.136297780215,-0.00220549273874
3251.448,0.135049488057,-0.00147751797667
3253.377,0.133807584743,-0.00181612613577
3255.305,0.132573357887,-0.000755203636888
3257.234,0.131345527172,0.00109473361875
3259.162,0.130125365619,0.00309489112828
3261.091,0.128911607501,0.00206403183971
3263.02,0.127704887507,0.0018109317593
3264.948,0.126505825731,0.00129666087523
3266.876,0.125313794784,0.00129143113323
3268.805,0.124128181862,0.000764570588841
3270.733,0.122950216218,0.00116274243992
3272.662,0.121778675894,0.003041247284
3274.591,0.120614173694,0.00358505808646
3276.519,0.119457307826,0.000942065467922
3278.448,0.118306878224,0.00292606426069
3280.376,0.117164077659,0.00604288686103
3282.304,0.116028307923,0.00668927016272
3284.233,0.114898985393,0.00614594536607
3286.161,0.113777280959,0.00581510759835
3288.09,0.112662031027,0.00642980158146
3290.019,0.111553819219,0.00703467769802
3291.947,0.110453214563,0.00825102075534
3293.875,0.109359640734,0.00943475934673
3295.804,0.108272535998,0.00865857690975
3297.732,0.107193027473,0.00897360550016
3299.661,0.106119995335,0.00892079107977
3301.589,0.105054552112,0.00709171292403
3303.518,0.103995592572,0.00559846383146
3305.447,0.102943671156,0.00810100689964
3307.375,0.10189932771,0.00787510876029
3309.303,0.100862015092,0.00729951326103
3311.232,0.0998312007485,0.00798553835993
3313.16,0.0988079534336,0.00848892314575
3315.089,0.0977912116878,0.00893996186924
3317.017,0.0967820296756,0.0102082159526
3318.946,0.0957793605278,0.00805759489523
3320.875,0.0947837295032,0.00867694976492
3322.803,0.0937956472685,0.0111524473439
3324.731,0.0928145958617,0.0113109474517
3326.66,0.0918400719098,0.0101345566154
3328.588,0.0908730858058,0.01003538483
3330.517,0.0899126344519,0.0100568389131
3332.445,0.0889597136506,0.00959011956483
3334.374,0.0880133348947,0.00942935185352
3336.302,0.087074479396,0.00995801832962
3338.231,0.0861421732382,0.0102272293698
3340.159,0.0852173830422,0.0113370493848
3342.088,0.0842991494823,0.0110625709261
3344.016,0.0833884245891,0.0105668468149
3345.945,0.0824842636272,0.010424358631
3347.873,0.0815876040366,0.0112914518615
3349.802,0.0806975156727,0.0121328694481
3351.73,0.0798149213849,0.0132526516465
3353.659,0.078938905619,0.0119123528466
3355.587,0.0780703766339,0.0102333229517
3357.516,0.0772084334659,0.0109350518267
3359.444,0.0763539697835,0.0125054762895
3361.373,0.0755060992136,0.0138018457981
3363.302,0.0746652667669,0.0159442551173
3365.23,0.0738319028619,0.0152589694721
3367.158,0.0730055697849,0.0145085816353
3369.087,0.0721858444109,0.0134017933127
3371.015,0.0713735766367,0.0151355207049
3372.944,0.0705679238607,0.0169589132969
3374.872,0.0697697213891,0.0160692556654
3376.801,0.0689781412111,0.014964343374
3378.729,0.0681940040422,0.0148444574962
3380.658,0.0674164964622,0.0126975740927
3382.586,0.0666464245961,0.0148743476671
3384.515,0.0658829896141,0.0166403602293
3386.443,0.0651269830506,0.0167410549561
3388.372,0.0643776206666,0.0170564236072
3390.3,0.0636356794058,0.0168562340683
3392.229,0.0629003896198,0.0157440559478
3394.157,0.0621725136618,0.0164630872682
3396.086,0.0614512964737,0.0203144975221
3398.014,0.0607374858184,0.0209355658343
3399.943,0.0600303412283,0.0181420028534
3401.871,0.0593305958757,0.0212481972103
3403.8,0.0586375238836,0.0243933059961
3405.728,0.0579518438337,0.0241465085366
3407.657,0.0572728444396,0.0237988729363
3409.585,0.0566012296924,0.0242148523858
3411.514,0.0559363028963,0.0232339184723
3413.442,0.0552787534518,0.0222413617812
3415.371,0.0546278992537,0.0220157376613
3417.299,0.0539844151119,0.0227825413219
3419.228,0.0533476335118,0.0253581685705
3421.156,0.0527182146727,0.0255983222726
3423.085,0.0520955056706,0.0255547015466
3425.013,0.0514801521342,0.0286706110316
3426.942,0.0508715157301,0.0295581314952
3428.87,0.0502702274964,0.0317668189
3430.799,0.0496756636903,0.0328475345307
3432.727,0.0490884407593,0.0318007738369
3434.656,0.0485079495512,0.031794435974
3436.584,0.0479347919229,0.0329836352478
3438.513,0.0473683733127,0.0334014134052
3440.441,0.0468092809872,0.034419264449
3442.37,0.046256934975,0.0357508988469
3444.298,0.0457119079522,0.0360711709925
3446.227,0.045173634538,0.0334402338538
3448.155,0.0446426728178,0.0318837094727
3450.084,0.0441184720016,0.0341813864842
3452.012,0.0436015755842,0.0355536857116
3453.941,0.043091447366,0.0361567078953
3455.869,0.0425886162513,0.0357412634616
3457.798,0.0420925606311,0.0357896287958
3459.726,0.0416037948191,0.0378040693273
3461.655,0.0411218117968,0.0372473886479
3463.583,0.0406471112875,0.0353166509686
3465.512,0.0401792008633,0.0379422991873
3467.44,0.0397185656567,0.0398403649003
3469.369,0.0392647278304,0.0385900684902
3471.297,0.0388181579265,0.0389102864281
3473.226,0.0383783926983,0.0385722794942
3475.154,0.0379458880971,0.0405459748363
3477.083,0.0375201954668,0.0422776919283
3479.011,0.0371017561683,0.0413056531109
3480.94,0.036690136136,0.0395597880528
3482.868,0.0362857621403,0.0395808101836
3484.797,0.035888214706,0.0399734046208
3486.725,0.0354979060129,0.0403560816551
3488.654,0.0351144311766,0.0397529497998
3490.582,0.0347381877863,0.0406279296705
3492.511,0.0343687855479,0.0414747401773
3494.439,0.0340066074603,0.0389790389563
3496.368,0.03365127782,0.0378017697895
3498.296,0.033303165035,0.0416449801181
3500.225,0.0329619079927,0.0406503430939
3502.153,0.0326278605105,0.0383149273193
3504.082,0.0323006760661,0.0374665836125
3506.01,0.0319806938866,0.0402320322834
3507.939,0.0316675820402,0.0398615294528
3509.867,0.0313616651634,0.0381427824258
3511.796,0.031062625915,0.0398140545661
3513.724,0.0307707743409,0.0401543242136
3515.653,0.0304858076905,0.039599960024
3517.581,0.0302080214192,0.0389895425149
3519.51,0.0299371273668,0.0359822095381
3521.438,0.0296734063981,0.0354892843934
3523.367,0.0294165849437,0.0323741762006
3525.295,0.0291669292777,0.0298231647282
3527.224,0.0289241804213,0.0296284830782
3529.152,0.028688590058,0.0320798825994
3531.081,0.0284599137995,0.0345566635784
3533.009,0.028238388739,0.0366332376635
3534.938,0.0280237850785,0.0378633573454
3536.866,0.0278163253207,0.0364285447895
3538.795,0.0276157942582,0.0364776556559
3540.723,0.0274223998031,0.0354234507983
3542.652,0.0272359413386,0.0344599042087
3544.58,0.0270566121862,0.0323249707512
3546.509,0.0268842263197,0.0271263367047
3548.437,0.02671896247,0.0291355306059
3550.366,0.0265606492015,0.0326869501112
3552.294,0.0264094506545,0.0315369255712
3554.223,0.026265209984,0.0347514684756
3556.151,0.0261280767396,0.0411499481264
3558.08,0.0259979086671,0.0460518740075
3560.008,0.0258748407255,0.0477290711313
3561.937,0.025758745251,0.0496230398496
3563.865,0.0256497426121,0.0524072168542
3565.794,0.0255477197356,0.0476328624943
3567.722,0.0254527823994,0.0307063705371
3569.651,0.0253648321208,0.0302210872161
3571.579,0.0252839600873,0.0356761126914
3573.508,0.0252100824068,0.0368567325129
3575.436,0.025143275676,0.037173817218
3577.365,0.0250834705934,0.0352537880743
3579.293,0.0250307291654,0.0322776707133
3581.222,0.0249849966808,0.0331588929381
3583.15,0.0249463205554,0.0368718336951
3585.079,0.0249146606688,0.0383339494595
3587.007,0.0248900498462,0.0369626743022
3588.936,0.0248724625576,0.0386813128392
3590.864,0.0248619170376,0.0518842165922
3592.793,0.024858402347,0.062876814473
3594.721,0.0248619221298,0.0742199034034
3596.65,0.0248724800372,0.0870783943184
3598.578,0.0248900651226,0.0959552295302
3600.507,0.024914695628,0.083164097458
3602.435,0.0249463460162,0.0599450923746
3604.364,0.0249850491195,0.0462299513859
3606.292,0.0250307648104,0.0360367576802
3608.221,0.0250835405118,0.0224682637943
3610.149,0.0251433215053,0.0219598322397
3612.078,0.0252101698047,0.0248238946854
3614.006,0.025284016101,0.0175719931985
3615.935,0.0253649369983,0.0180125015946
3617.863,0.0254528485973,0.0156750195923
3619.792,0.0255478420926,0.00589792764356
3621.72,0.0256498189943,0.00992791273517
3623.649,0.0257588850876,0.0161411452368
3625.577,0.0258749272921,0.0178195031133
3627.506,0.0259980659833,0.0179970821012
3629.434,0.0261281734905,-0.000876177129414
3631.363,0.0262653847798,0.00550920331284
3633.291,0.0264095575896,0.0139165315644
3635.22,0.0265608414769,0.0152902148256
3637.148,0.0267190795894,0.0182504443164
3639.077,0.0268844360747,0.0180463735887
3641.005,0.0270567394899,0.0208660847292
3642.934,0.0272361685732,0.0192138971299
3644.862,0.0274225372911,0.021461724308
3646.791,0.0276160389723,0.01673693788
3648.719,0.027816472993,0.00148232413626
3650.648,0.0280240472722,-0.0070253107919
3652.576,0.0282385465956,0.00563611225407
3654.505,0.0284601934728,0.0181702017561
3656.433,0.0286887580989,0.0143859917242
3658.362,0.0289244775741,0.0133529913433
3660.29,0.0291671075029,0.0153128278049
3662.219,0.0294168995761,0.0145663208828
3664.147,0.0296735948076,0.0142701027563
3666.076,0.0299374594788,0.0154468021203
3668.004,0.030208220013,0.0137553906208
3669.933,0.0304861572821,-0.00420641402934
3671.861,0.0307709831191,-0.0021041985239
3673.79,0.0310629929862,0.00695171438263
3675.718,0.0313618841258,-0.0164416374868
3677.647,0.031667966591,-0.00795443176838
3679.575,0.0319809230333,0.00372270579515
3681.504,0.0323010780965,0.00549155305689
3683.432,0.0326280998415,0.00980629821775
3685.361,0.0329623275026,0.00969930193234
3687.289,0.0333034145504,0.00811314261127
3689.218,0.0336517148095,-0.0026582851117
3691.146,0.0340068671599,-0.00474860374134
3693.075,0.034369240017,-0.00307509264009
3695.003,0.0347384576702,0.00288051534104
3696.932,0.0351149031253,0.00332212305485
3698.86,0.0354981860811,0.00293884009899
