baseline wavenumber (cm-1),baseline absorbance (cm-1),baseline-subtracted absorbance (cm-1)
3199.379,0.147704942889,1.28785870857e-14
3201.308,0.146267589568,0.0024966882041
3203.236,0.144838014027,0.00349363461314
3205.165,0.143414733304,0.00576852758707
3207.093,0.141999223066,0.00507951947881
3209.021,0.140590743656,0.00341865692989
3210.95,0.139188570006,0.00294930525911
3212.878,0.137794155899,0.00574521537372
3214.807,0.136406054847,0.00747345591845
3216.736,0.135024991918,0.00546121044745
3218.664,0.133651677588,0.00473758754903
3220.593,0.132284687257,0.00654630435319
3222.521,0.13092543823,0.00733444249391
3224.449,0.129573220031,0.00729678906672
3226.378,0.128227336772,0.00351429872742
3228.306,0.126889183876,0.00109272252254
3230.235,0.125557373216,0.00264337478792
3232.164,0.124232600679,0.00441492787675
3234.092,0.12291554756,0.00410709471261
3236.021,0.121604847621,0.00474509678437
3237.949,0.120301859804,0.00697045395282
3239.877,0.119005902816,0.00937022171649
3241.806,0.11771630995,0.00594385380238
3243.734,0.116434418264,0.0042478823525
3245.663,0.115158897996,0.00557647044649
3247.592,0.113890415851,0.00860680440587
3249.52,0.112629623943,0.00817296374565
3251.448,0.111375862862,0.00812428876
3253.377,0.11012848779,0.00966480039348
3255.305,0.108888792013,0.00829709699989
3257.234,0.107655489538,0.00737382411787
3259.162,0.106429859063,0.00903208372442
3261.091,0.105210629187,0.00898223445384
3263.02,0.103998437434,0.00945501450161
3264.948,0.102793906737,0.0105165147735
3266.876,0.101596406867,0.0110211004612
3268.805,0.100405322187,0.0130071917118
3270.733,0.0992218876202,0.0128881902126
3272.662,0.0980448755379,0.00870282485633
3274.591,0.0968749015788,0.00655479618725
3276.519,0.0957125667895,0.00681497793906
3278.448,0.0945566654285,0.00937540775458
3280.376,0.0934083959419,0.0103670008033
3282.304,0.0922671572833,0.0103200255733
3284.233,0.0911323629949,0.010080615879
3286.161,0.090005189639,0.00834061042161
3288.09,0.0888844679487,0.00570311923419
3290.019,0.0877707843816,0.0080216951494
3291.947,0.0866647108031,0.00751703386485
3293.875,0.0855656680526,0.00958696512234
3295.804,0.0844730915582,0.0125540993849
3297.732,0.0833881141105,0.0129026975746
3299.661,0.0823096102141,0.0133186117611
3301.589,0.081238698069,0.011722486607
3303.518,0.0801742667706,0.00719963396731
3305.447,0.0791168735955,0.00664275442435
3307.375,0.0780670612278,0.0101266110657
3309.303,0.0770242796882,0.0121574649798
3311.232,0.0759879935857,0.0109618699541
3313.16,0.0749592773488,0.00853865047896
3315.089,0.0739370638443,0.00587239739087
3317.017,0.0729224129101,0.00655903862126
3318.946,0.0719142720037,0.00735692985624
3320.875,0.0709131692205,0.007853635591
3322.803,0.0699196180637,0.00618419271162
3324.731,0.0689330977349,0.00676992460417
3326.66,0.0679531020244,0.00922217342291
3328.588,0.0669806469983,0.00997528143597
3330.517,0.0660147238858,0.00870629097321
3332.445,0.0650563341624,0.00992041707586
3334.374,0.0641044836479,0.00780242022355
3336.302,0.0631601592272,0.00643349285003
3338.231,0.0622223813107,0.00893348647463
3340.159,0.0612921221927,0.00807864501644
3342.088,0.0603684168742,0.00427425976588
3344.016,0.0594522230589,0.00691844306867
3345.945,0.0585425903384,0.00940848618039
3347.873,0.0576404618258,0.0100533620901
3349.802,0.0567449017032,0.00809084074091
3351.73,0.0558568384934,0.00785588767663
3353.659,0.0549753509688,0.00911693650717
3355.587,0.0541013530617,0.0106176401659
3357.516,0.0532339381351,0.00939367735059
3359.444,0.0523740055307,0.00817436200194
3361.373,0.0515206632021,0.00882958444777
3363.302,0.0506743589968,0.00967740487666
3365.23,0.0498355261698,0.011363301284
3367.158,0.0490037241707,0.00962257725452
3369.087,0.0481785270381,0.00871725786029
3371.015,0.0473607903418,0.0120984232436
3372.944,0.0465496658072,0.00977349198115
3374.872,0.0457459944136,0.00760384890999
3376.801,0.0449489424769,0.00731275771511
3378.729,0.044159336386,0.00869268019133
3380.658,0.0433763570474,0.0087549479157
3382.586,0.0426008162592,0.0121768042806
3384.515,0.0418319095186,0.013177187823
3386.443,0.0410704340331,0.0101187906713
3388.372,0.0403155998904,0.00675455072113
3390.3,0.0395681897076,0.00848649542327
3392.229,0.038827428163,0.00811535966681
3394.157,0.0380940832829,0.00996666674238
3396.086,0.0373673943362,0.00929489212897
3398.014,0.0366481147588,0.00971749729008
3399.943,0.0359354984102,0.0107272934629
3401.871,0.0352302841355,0.0121259273272
3403.8,0.0345317403848,0.0142704429772
3405.728,0.0338405914128,0.0117047436726
3407.657,0.0331561202601,0.0100618116109
3409.585,0.0324790365909,0.0129495492779
3411.514,0.0318086380362,0.0127440760041
3413.442,0.0311456196696,0.0121476179732
3415.371,0.0304892937129,0.0133144058727
3417.299,0.0298403406491,0.0129939866531
3419.228,0.0291980872903,0.00934684346881
3421.156,0.0285631995292,0.00681231851387
3423.085,0.0279350187684,0.00294893958596
3425.013,0.02731419631,0.00332817708531
3426.942,0.0267000881473,0.00517143717368
3428.87,0.0260933309915,0.00540065465487
3430.799,0.0254932954268,0.00675425334509
3432.727,0.0249006035738,0.00929074384359
3434.656,0.024314640607,0.00859954113769
3436.584,0.0237360140567,0.00553569321107
3438.513,0.0231641236879,0.0030215631614
3440.441,0.0225995624403,0.00426791961771
3442.37,0.0220417446695,0.00308612352013
3444.298,0.0214912487246,0.00137744631227
3446.227,0.0209475035518,0.000702653124641
3448.155,0.0204110729096,0.00556588049177
3450.084,0.0198814003348,0.00715943662063
3452.012,0.0193590349953,0.00504609994856
3453.941,0.0188434350185,0.00233921938361
3455.869,0.0183351349817,0.00588552609175
3457.798,0.0178336076029,0.0100719822081
3459.726,0.0173393728688,0.0083156357231
3461.655,0.016851918088,0.00488921200401
3463.583,0.0163717486566,0.00696394324673
3465.512,0.0158983664738,0.0080069200925
3467.44,0.0154322623451,0.00953134828866
3469.369,0.0149729527602,0.0111227714892
3471.297,0.0145209139343,0.0132744969623
3473.226,0.0140756769474,0.012864583843
3475.154,0.0136377034242,0.0120152835363
3477.083,0.0132065390353,0.0156042362604
3479.011,0.0127826308148,0.016931813742
3480.94,0.0123655390239,0.0142477228785
3482.868,0.0119556961061,0.0146732334401
3484.797,0.0115526769131,0.0177523872737
3486.725,0.011156899298,0.0174835535474
3488.654,0.0107679527031,0.0163158439208
3490.582,0.0103862403907,0.0196759247766
3492.511,0.0100113663938,0.0227057062839
3494.439,0.00964371938408,0.0223784174804
3496.368,0.00928291798511,0.0210445863109
3498.296,0.00892933627815,0.0244836830284
3500.225,0.00858260747717,0.0244766263245
3502.153,0.00824309107291,0.0211943899743
3504.082,0.00791043486992,0.0238499007209
3506.01,0.00758498376837,0.0317013803275
3507.939,0.00726640016337,0.0342098962078
3509.867,0.00695501436452,0.036052667835
3511.796,0.00665050335751,0.037376586504
3513.724,0.00635318286137,0.0363472113568
3515.653,0.00606274445235,0.0344825906331
3517.581,0.00577948925892,0.0360571629194
3519.51,0.00550312344789,0.0397394723269
3521.438,0.00523393355717,0.0414025771069
3523.367,0.00497164034413,0.0447549340014
3525.295,0.00471651575611,0.0461007287602
3527.224,0.00446829514106,0.0415207880491
3529.152,0.00422723585575,0.0433008142807
3531.081,0.00399308783869,0.0435198000619
3533.009,0.00376609385608,0.0440566090652
3534.938,0.00354601843701,0.0418608348936
3536.866,0.00333308975712,0.0416249613902
3538.795,0.00312708693603,0.041411475684
3540.723,0.00292822355885,0.0419823192492
3542.652,0.00273629333575,0.039850384113
3544.58,0.00255149526127,0.0316964578369
3546.509,0.00237363763616,0.0282950169681
3548.437,0.00220290486439,0.0313192825408
3550.366,0.00203911983727,0.0293689464722
3552.294,0.00188245236821,0.0312177194705
3554.223,0.00173273993908,0.041202163528
3556.151,0.00159013777272,0.0482001179637
3558.08,0.00145449794159,0.0524811130965
3560.008,0.00132596107794,0.0599820344745
3561.937,0.00120439384479,0.0711786042347
3563.865,0.00108992228385,0.0761647021981
3565.794,0.000982427648683,0.0706449856739
3567.722,0.000882021390451,0.0702131974512
3569.651,0.000788599353278,0.0765954095419
3571.579,0.000702258397753,0.0812233455646
3573.508,0.000622908958569,0.077905343341
3575.436,0.000550633305751,0.0637453335395
3577.365,0.000485356464557,0.0504183127965
3579.293,0.000427146114447,0.0474814761437
3581.222,0.000375941871241,0.0450566872605
3583.15,0.000331796823838,0.0395898649572
3585.079,0.000294665178622,0.0345511854228
3587.007,0.000264585433927,0.0358210306583
3588.936,0.000241526386699,0.049428442278
3590.864,0.000225511944709,0.0586095229284
3592.793,0.000216525495471,0.0709807857347
3594.721,0.000214576356191,0.0918575958868
3596.65,0.000219662504941,0.111425440093
3598.578,0.00023177866837,0.11323279224
3600.507,0.000250937415109,0.0916640529821
3602.435,0.000277118881245,0.06501601768
3604.364,0.000310350225973,0.0453057419604
3606.292,0.000350596994815,0.02876089598
3608.221,0.000397900937534,0.0195272986986
3610.149,0.000452213009083,0.0186557421107
3612.078,0.00051358954979,0.015212681551
3614.006,0.000581966924049,0.0151119580734
3615.935,0.000657416062744,0.0124225394614
3617.863,0.00073985873971,0.00727439376206
3619.792,0.000829380476395,0.00637773566633
3621.72,0.000925888456068,0.0141312226326
3623.649,0.00102948279074,0.0151213309159
3625.577,0.00114005607312,0.0120207647092
3627.506,0.00125772300579,0.00769962057048
3629.434,0.00138236159087,0.00861864922486
3631.363,0.00151410112153,0.0104307083397
3633.291,0.00165280500932,0.00719284342897
3635.22,0.00179861713796,0.00898830290651
3637.148,0.00195138632847,0.0139826074045
3639.077,0.0021112710551,0.0143180223847
3641.005,0.00227810554831,0.0134365411716
3642.934,0.00245206287293,0.0124827395126
3644.862,0.00263296266885,0.0078315071583
3646.791,0.00282099259145,-0.00112686543084
3648.719,0.00301595769008,0.000962613016483
3650.648,0.00321806021068,0.00567408575111
3652.576,0.00342709061201,0.00946080992372
3654.505,0.0036432657306,0.00743527465149
3656.433,0.00386636143464,0.00763520532974
3658.362,0.00409660915121,0.0101018139763
3660.29,0.00433377015796,0.0130477116979
3662.219,0.00457809047253,0.0146779491515
3664.147,0.00482931678198,0.0145136529946
3666.076,0.00508770969454,0.00947359627939
3668.004,0.0053530013067,0.00252378025602
3669.933,0.00562546681724,0.0023129745049
3671.861,0.00590482373211,0.00648979872821
3673.79,0.00619136184065,-0.00341010236425
3675.718,0.00648478405823,-0.00648478405823
3677.647,0.00678539476475,-0.000321733590178
3679.575,0.00709288228503,0.00123320686891
3681.504,0.00740756558954,0.0027440567697
3683.432,0.00772911841254,0.00389627327856
3685.361,0.00805787431504,0.00214024556771
3687.289,0.00839349244074,-0.00496278385891
3689.218,0.00873632094123,-0.00863978803917
3691.146,0.00908600436964,-0.00231404439794
3693.075,0.00944290546811,0.00353697929889
3695.003,0.00980665419923,0.0030221136164
3696.932,0.0101776278957,0.00409205774061
3698.86,0.0105554419295,0.00371424370679
