wavenumber (/cm),baseline value (/cm),baseline-subtracted absorbance (/cm),
3.199378999999999905e+03,2.384354337037777327e-01,4.381945900642225666e-04
3.201307999999999993e+03,2.362712164138009996e-01,2.595028145486732996e-04
3.203235999999999876e+03,2.341186700382777985e-01,5.888158078115601768e-04
3.205164999999999964e+03,2.319755616452887637e-01,2.280047497089210395e-03
3.207092999999999847e+03,2.298441132238302487e-01,2.093399881642588056e-03
3.209021000000000186e+03,2.277232110443776492e-01,1.324457928852273980e-03
3.210949999999999818e+03,2.256117632604208723e-01,1.720661426795055959e-03
3.212878000000000156e+03,2.235119590350329588e-01,4.374739783727044085e-03
3.214806999999999789e+03,2.214216201480603274e-01,6.597880795533583864e-03
3.216735999999999876e+03,2.193418384460166237e-01,6.121221594522996412e-03
3.218664000000000215e+03,2.172736838867415088e-01,6.503837606234075253e-03
3.220592999999999847e+03,2.152150110816855033e-01,7.882074261153615424e-03
3.222521000000000186e+03,2.131679544764715217e-01,7.183272195786960523e-03
3.224449000000000069e+03,2.111314441132670083e-01,7.294151748898247689e-03
3.226378000000000156e+03,2.091044319172468136e-01,8.471230345980851340e-03
3.228306000000000040e+03,2.070890195081034335e-01,9.855483182886981552e-03
3.230235000000000127e+03,2.050831162090638315e-01,8.597949003769089771e-03
3.232164000000000215e+03,2.030877700949567100e-01,7.187619574435810677e-03
3.234092000000000098e+03,2.011040073519261284e-01,6.404554890332869732e-03
3.236021000000000186e+03,1.991297701348031524e-01,7.320918339370319217e-03
3.237949000000000069e+03,1.971671053458337042e-01,9.373399302240681408e-03
3.239876999999999953e+03,1.952149867988737242e-01,1.190984719847021367e-02
3.241806000000000040e+03,1.932724101907901115e-01,1.307657981410259573e-02
3.243733999999999924e+03,1.913413895978912649e-01,1.305925344397640409e-02
3.245663000000000011e+03,1.894199218867846923e-01,1.142651691939411407e-02
3.247592000000000098e+03,1.875090113606141529e-01,1.361840878337128302e-02
3.249519999999999982e+03,1.856096404338281047e-01,1.636072372357721960e-02
3.251447999999999865e+03,1.837208157490550775e-01,1.768583833635761771e-02
3.253376999999999953e+03,1.818415658319167960e-01,1.788304449869060342e-02
3.255304999999999836e+03,1.799738391012049021e-01,1.658344055211169454e-02
3.257233999999999924e+03,1.781156980810507662e-01,1.637406217616588222e-02
3.259161999999999807e+03,1.762690693044000056e-01,1.837830610623814032e-02
3.261090999999999894e+03,1.744320371812264625e-01,1.740377745496557438e-02
3.263019999999999982e+03,1.726055622429889524e-01,1.664480471025076014e-02
3.264947999999999865e+03,1.707905831324509904e-01,1.608821745467414743e-02
3.266876000000000204e+03,1.689861502639189439e-01,1.687531615112258798e-02
3.268804999999999836e+03,1.671913359347172445e-01,1.712368468455993664e-02
3.270733000000000175e+03,1.654080010202498840e-01,1.940537704643063854e-02
3.272661999999999807e+03,1.636342955880323302e-01,2.151982477263025828e-02
3.274590999999999894e+03,1.618711473407472567e-01,2.130876459047503779e-02
3.276518999999999778e+03,1.601194620923891421e-01,2.244361891690704880e-02
3.278447999999999865e+03,1.583774227420846614e-01,2.241030354574635730e-02
3.280376000000000204e+03,1.566468354477947855e-01,2.192903650299848906e-02
3.282304000000000087e+03,1.549267943955072724e-01,2.289210544373232459e-02
3.284233000000000175e+03,1.532164156542386024e-01,2.464651857376165545e-02
3.286161000000000058e+03,1.515174725560193281e-01,2.452886839596235546e-02
3.288090000000000146e+03,1.498282027117348036e-01,2.173991079913406566e-02
3.290018999999999778e+03,1.481494900523827596e-01,2.389251735657782483e-02
3.291947000000000116e+03,1.464821966202691783e-01,2.727156028194666071e-02
3.293875000000000000e+03,1.448254494301721707e-01,2.948782379272563148e-02
3.295804000000000087e+03,1.431783973798523846e-01,2.998089527409342203e-02
3.297731999999999971e+03,1.415427481438129576e-01,2.866624046316257335e-02
3.299661000000000058e+03,1.399168049904808697e-01,2.751906556239536172e-02
3.301588999999999942e+03,1.383022537085025760e-01,2.774338828492717290e-02
3.303518000000000029e+03,1.366974194521510810e-01,2.901796462557304501e-02
3.305447000000000116e+03,1.351031423807356191e-01,2.994333836295615114e-02
3.307375000000000000e+03,1.335202407648701239e-01,3.045613443608052862e-02
3.309302999999999884e+03,1.319478853910176497e-01,3.162449176701698228e-02
3.311231999999999971e+03,1.303852689286308930e-01,3.369839641001437514e-02
3.313159999999999854e+03,1.288340115088395521e-01,3.219275860369275044e-02
3.315088999999999942e+03,1.272925039434404937e-01,3.169645251144159737e-02
3.317016999999999825e+03,1.257623444777102861e-01,3.382492049747654050e-02
3.318945999999999913e+03,1.242419458092918205e-01,3.462713925396387893e-02
3.320875000000000000e+03,1.227321043258093880e-01,3.454195732233467098e-02
3.322802999999999884e+03,1.212335945261919790e-01,3.400509981923338643e-02
3.324731000000000222e+03,1.197456309685804854e-01,3.291145996592725886e-02
3.326659999999999854e+03,1.182674500941303108e-01,3.277469710654057344e-02
3.328588000000000193e+03,1.168005844905835033e-01,3.661872074461602899e-02
3.330516999999999825e+03,1.153435125131210270e-01,3.864719133814054075e-02
3.332445000000000164e+03,1.138977448636318002e-01,3.761445196309631811e-02
3.334373999999999796e+03,1.124617817831499167e-01,3.783317872569180729e-02
3.336302000000000135e+03,1.110371120877253759e-01,3.695128520031532027e-02
3.338231000000000222e+03,1.096222579042311907e-01,3.668374614972846892e-02
3.340159000000000106e+03,1.082186861628642305e-01,3.983611218759364192e-02
3.342088000000000193e+03,1.068249408763506381e-01,4.195048374096943533e-02
3.344016000000000076e+03,1.054424670890483640e-01,4.268572190934394328e-02
3.345945000000000164e+03,1.040698306995189171e-01,4.266288755028879720e-02
3.347873000000000047e+03,1.027084548662742236e-01,4.338226995374405703e-02
3.349802000000000135e+03,1.013569273737289222e-01,4.297172293730744386e-02
3.351730000000000018e+03,1.000166494945489148e-01,4.230843612787360541e-02
3.353659000000000106e+03,9.868623089898775902e-02,4.346900779535745052e-02
3.355586999999999989e+03,9.736705097386888497e-02,4.325851692995441589e-02
3.357516000000000076e+03,9.605774127528832196e-02,4.376262637690975232e-02
3.359443999999999960e+03,9.475965930423058126e-02,4.579286743093402556e-02
3.361373000000000047e+03,9.347145850263771649e-02,4.588829546395212233e-02
3.363302000000000135e+03,9.219381488597022667e-02,4.427958974113521684e-02
3.365230000000000018e+03,9.092738258102528448e-02,4.338414324549311196e-02
3.367157999999999902e+03,8.967149651809336319e-02,4.422624584578449536e-02
3.369086999999999989e+03,8.842551351046523678e-02,4.603349257047417709e-02
3.371014999999999873e+03,8.719072540159089613e-02,4.872560925976365809e-02
3.372943999999999960e+03,8.596585129094691524e-02,4.792699836306857364e-02
3.374871999999999844e+03,8.475216113613370794e-02,4.705185088595342791e-02
3.376800999999999931e+03,8.354839592247387259e-02,4.680492762543986274e-02
3.378728999999999814e+03,8.235580372172179864e-02,4.814569903916443572e-02
3.380657999999999902e+03,8.117314740504255610e-02,4.857033480646233414e-02
3.382585999999999785e+03,8.000165315835516822e-02,4.944127687589383591e-02
3.384514999999999873e+03,7.884010573866007121e-02,4.903156547123699305e-02
3.386443000000000211e+03,7.768970944603381668e-02,5.109619954956268195e-02
3.388371999999999844e+03,7.654927092332286520e-02,5.174247437618073597e-02
3.390300000000000182e+03,7.541997258475419130e-02,5.171849110434889596e-02
3.392228999999999814e+03,7.430064295903093807e-02,5.146995884428218204e-02
3.394157000000000153e+03,7.319244257452339752e-02,5.177924960413027300e-02
3.396085999999999785e+03,7.209422184578073711e-02,5.434388537446110945e-02
3.398014000000000124e+03,7.100711941533432991e-02,5.745971500138469246e-02
3.399943000000000211e+03,6.993000758357581503e-02,5.767920469013620988e-02
3.401871000000000095e+03,6.886400310719409390e-02,5.815493866955856461e-02
3.403800000000000182e+03,6.780800017241972455e-02,5.630502142539950405e-02
3.405728000000000065e+03,6.676309365009558405e-02,5.619245258601268667e-02
3.407657000000000153e+03,6.572819961230180752e-02,5.675450116354219254e-02
3.409585000000000036e+03,6.470439104404590580e-02,5.819593746647333532e-02
3.411514000000000124e+03,6.369060590323627480e-02,6.042625996661765697e-02
3.413442000000000007e+03,6.268789528903440100e-02,6.282164549519708707e-02
3.415371000000000095e+03,6.169521904521246825e-02,6.110306151675004571e-02
3.417298999999999978e+03,6.071360638507528051e-02,5.915429044864239927e-02
3.419228000000000065e+03,5.974203903823394057e-02,5.880168081917847012e-02
3.421155999999999949e+03,5.878152433215788619e-02,5.928969954426621669e-02
3.423085000000000036e+03,5.783106588229713907e-02,6.022547986453985480e-02
3.425012999999999920e+03,5.689164913028577075e-02,6.402293813468928896e-02
3.426942000000000007e+03,5.596229957740916916e-02,6.603567344279070994e-02
3.428869999999999891e+03,5.504398077945538148e-02,6.675793436697641248e-02
3.430798999999999978e+03,5.413574012356647813e-02,6.564583532900925000e-02
3.432726999999999862e+03,5.323851927967382380e-02,6.591783774835446863e-02
3.434655999999999949e+03,5.235138752076906599e-02,6.629368132664814617e-02
3.436583999999999833e+03,5.147526463093754501e-02,6.543988180087878526e-02
3.438512999999999920e+03,5.060924176901338001e-02,6.616122024258919154e-02
3.440440999999999804e+03,4.975421683324654509e-02,6.852424825377378959e-02
3.442369999999999891e+03,4.890930286830652562e-02,6.683508798931558914e-02
3.444297999999999774e+03,4.807537588659727135e-02,6.503918342003589537e-02
3.446226999999999862e+03,4.725157081863784470e-02,6.396566549924842526e-02
3.448155000000000200e+03,4.643874179099682920e-02,6.380135047153201455e-02
3.450083999999999833e+03,4.563604562002154807e-02,6.588663558498297768e-02
3.452012000000000171e+03,4.484431454643456050e-02,6.719175171483615649e-02
3.453940999999999804e+03,4.406272727244697762e-02,6.918218780408880164e-02
3.455869000000000142e+03,4.329209415292467611e-02,7.199133353981301831e-02
3.457797999999999774e+03,4.253161577591768605e-02,7.197212365233407461e-02
3.459726000000000113e+03,4.178208061045651789e-02,7.133981776097009231e-02
3.461655000000000200e+03,4.104271113043367336e-02,6.992814229795807357e-02
3.463583000000000084e+03,4.031427391903363855e-02,7.027564709864986270e-02
3.465512000000000171e+03,3.959601333599138684e-02,7.099006340965763329e-02
3.467440000000000055e+03,3.888867407865603809e-02,7.122385824817700772e-02
3.469369000000000142e+03,3.819152239259793191e-02,7.138176341155388904e-02
3.471297000000000025e+03,3.750528108932371651e-02,7.052085996051205008e-02
3.473226000000000113e+03,3.682923830024975587e-02,6.995939663369865613e-02
3.475153999999999996e+03,3.616409495103312111e-02,7.099708489100220454e-02
3.477083000000000084e+03,3.550916105894685870e-02,7.044806267768555230e-02
3.479010999999999967e+03,3.486511566379135729e-02,7.152616133348255190e-02
3.480940000000000055e+03,3.423129066868568771e-02,7.154560176159319163e-02
3.482867999999999938e+03,3.360834322759131965e-02,6.959183850163208618e-02
3.484797000000000025e+03,3.299562712947334830e-02,7.067110943304832915e-02
3.486724999999999909e+03,3.239377764243656088e-02,7.221375713075128822e-02
3.488653999999999996e+03,3.180217044129918236e-02,6.890797144728666446e-02
3.490581999999999880e+03,3.122141890833063371e-02,6.481373870682283211e-02
3.492510999999999967e+03,3.065092060417740072e-02,6.318042069728324606e-02
3.494438999999999851e+03,3.009126702526643271e-02,6.510339293139821848e-02
3.496367999999999938e+03,2.954187761809734525e-02,6.556401460249383639e-02
3.498295999999999822e+03,2.900332199324751059e-02,6.735789978630091213e-02
3.500224999999999909e+03,2.847504148306256866e-02,6.813151474815293263e-02
3.502152999999999793e+03,2.795758381227386735e-02,6.648359882559584655e-02
3.504081999999999880e+03,2.745041219907307095e-02,6.260899927782626051e-02
3.506010000000000218e+03,2.695405248234905571e-02,6.417476557873991183e-02
3.507938999999999851e+03,2.646798976612885212e-02,6.698486547955506687e-02
3.509867000000000189e+03,2.599272800346241752e-02,6.739722097256306554e-02
3.511795999999999822e+03,2.552777418422635947e-02,6.581737154863165351e-02
3.513724000000000160e+03,2.507361037562461092e-02,6.424630295351496656e-02
3.515652999999999793e+03,2.462976545337269840e-02,6.359138503240346907e-02
3.517581000000000131e+03,2.419669959883208321e-02,6.222008938558110103e-02
3.519510000000000218e+03,2.377396357356431622e-02,5.792555414503497424e-02
3.521438000000000102e+03,2.336199567308483438e-02,5.789403284442418141e-02
3.523367000000000189e+03,2.296036854479766021e-02,5.760194361009163266e-02
3.525295000000000073e+03,2.256949859837931172e-02,5.694926843873537869e-02
3.527224000000000160e+03,2.218898036707983579e-02,5.631070510157187847e-02
3.529152000000000044e+03,2.181920837472262065e-02,5.695132353273502090e-02
3.531081000000000131e+03,2.145979904040018482e-02,5.903017090438211767e-02
3.533009000000000015e+03,2.111112500210765575e-02,6.035878483223910962e-02
3.534938000000000102e+03,2.077282456477291817e-02,5.943092185306442232e-02
3.536865999999999985e+03,2.044524848053796973e-02,5.586634724183570100e-02
3.538795000000000073e+03,2.012805694018737768e-02,5.521932546003616160e-02
3.540722999999999956e+03,1.982157881001356259e-02,5.517667379360702284e-02
3.542652000000000044e+03,1.952549616664711607e-02,5.558144449177171431e-02
3.544579999999999927e+03,1.924011599053798705e-02,5.623832113814009048e-02
3.546509000000000015e+03,1.896514224415213334e-02,5.187919968637122459e-02
3.548436999999999898e+03,1.870086002210058496e-02,5.028949434988505551e-02
3.550365999999999985e+03,1.844699517270242950e-02,5.379107011002637329e-02
3.552293999999999869e+03,1.820381090471556718e-02,5.514315212037690372e-02
3.554222999999999956e+03,1.797105495229445182e-02,5.637052609194959096e-02
3.556150999999999840e+03,1.774896863836872285e-02,5.712836413579780448e-02
3.558079999999999927e+03,1.753732158293530574e-02,6.039131474893011386e-02
3.560007999999999811e+03,1.733633322307071012e-02,6.507821909397670801e-02
3.561936999999999898e+03,1.714579506462143854e-02,6.717202138886269047e-02
3.563864999999999782e+03,1.696590465881442356e-02,6.890499769667579599e-02
3.565793999999999869e+03,1.679647539734929751e-02,6.352050230587291679e-02
3.567722000000000207e+03,1.663768294560696859e-02,5.201891871791430866e-02
3.569650999999999840e+03,1.648936258112243536e-02,5.172829311189497403e-02
3.571579000000000178e+03,1.635166808344479250e-02,5.283020093172274834e-02
3.573507999999999811e+03,1.622445661594440480e-02,5.231751584508859132e-02
3.575436000000000149e+03,1.610786007232434258e-02,5.118367553961378214e-02
3.577364999999999782e+03,1.600175750180810041e-02,4.987159120861339723e-02
3.579293000000000120e+03,1.590625891224917154e-02,5.177704296794938266e-02
3.581222000000000207e+03,1.582126523872062762e-02,5.276334369396962209e-02
3.583150000000000091e+03,1.574686460321927939e-02,5.293455008888936497e-02
3.585079000000000178e+03,1.568297982667132828e-02,5.478077917242019090e-02
3.587007000000000062e+03,1.562967714523466611e-02,5.076125037276346674e-02
3.588936000000000149e+03,1.558690126567441325e-02,5.165116401705427407e-02
3.590864000000000033e+03,1.555469653829533172e-02,6.618640921413354583e-02
3.592793000000000120e+03,1.553302955571567168e-02,7.960781059246357927e-02
3.594721000000000004e+03,1.552192278240127621e-02,9.451302514518644671e-02
3.596650000000000091e+03,1.552136469680576170e-02,1.069284850271055021e-01
3.598577999999999975e+03,1.553135587755249958e-02,1.119981751212590915e-01
3.600507000000000062e+03,1.555190668893757788e-02,9.897245201659110592e-02
3.602434999999999945e+03,1.558299582374900183e-02,7.519424608580593805e-02
3.604364000000000033e+03,1.562465553211822566e-02,5.860159735108583234e-02
3.606291999999999916e+03,1.567684262098723025e-02,5.144309866649421359e-02
3.608221000000000004e+03,1.573961122634059961e-02,4.400177410950889545e-02
3.610148999999999887e+03,1.581289626927429026e-02,3.676626078671230147e-02
3.612077999999999975e+03,1.589677377160825245e-02,3.385160114975871437e-02
3.614005999999999858e+03,1.599115676860307644e-02,2.672604460135552529e-02
3.615934999999999945e+03,1.609614316792473687e-02,2.889931360148900730e-02
3.617862999999999829e+03,1.621162411898069422e-02,2.921054684628110465e-02
3.619791999999999916e+03,1.633771941528294747e-02,2.154268877651133174e-02
3.621719999999999800e+03,1.647429832040003816e-02,2.510499852729686232e-02
3.623648999999999887e+03,1.662150251368998966e-02,2.695471891637901685e-02
3.625577000000000226e+03,1.677917937286466099e-02,2.738486619923286014e-02
3.627505999999999858e+03,1.694749246313520530e-02,2.905027086949907300e-02
3.629434000000000196e+03,1.712626727637456270e-02,1.652753855293975782e-02
3.631362999999999829e+03,1.731568926362925254e-02,1.877363763928530105e-02
3.633291000000000167e+03,1.751556203092974329e-02,2.217619724774499979e-02
3.635219999999999800e+03,1.772609291516857866e-02,1.937253013648443378e-02
3.637148000000000138e+03,1.794706363653020276e-02,2.123410642008538574e-02
3.639077000000000226e+03,1.817870341775318366e-02,2.247622074524380231e-02
3.641005000000000109e+03,1.842077209317594111e-02,2.272027774256879518e-02
3.642934000000000196e+03,1.867352077138306754e-02,2.020779606652833849e-02
3.644862000000000080e+03,1.893668740086695834e-02,2.188423941817263518e-02
3.646791000000000167e+03,1.921054497605823030e-02,2.054516901010239316e-02
3.648719000000000051e+03,1.949480955959970174e-02,1.539440550994664036e-02
3.650648000000000138e+03,1.978977603177511924e-02,5.113418208806175258e-03
3.652576000000000022e+03,2.009513856938127674e-02,9.982795309139813611e-03
3.654505000000000109e+03,2.041121393853728705e-02,1.975269184185002302e-02
3.656432999999999993e+03,2.073767443020457790e-02,1.473307415440427981e-02
3.658362000000000080e+03,2.107485869634473374e-02,1.514202814226583982e-02
3.660289999999999964e+03,2.142241714207671066e-02,2.142653791488835502e-02
3.662219000000000051e+03,2.178071030520101203e-02,2.056429563594663890e-02
3.664146999999999935e+03,2.214936670499056959e-02,2.051646121141392776e-02
3.666076000000000022e+03,2.252876876509901649e-02,2.119737927432230329e-02
3.668003999999999905e+03,2.291852311894970740e-02,2.170613613875627124e-02
3.669932999999999993e+03,2.331903407604229983e-02,1.102394488530533678e-02
3.671860999999999876e+03,2.372988638395412408e-02,6.463375655606951042e-03
3.673789999999999964e+03,2.415150623803086205e-02,1.780662614471872907e-02
3.675717999999999847e+03,2.458345650000381966e-02,2.604283766998394256e-03
3.677646999999999935e+03,2.502618525106470315e-02,-3.118727363317530532e-03
3.679574999999999818e+03,2.547923346709879411e-02,4.643433758734660799e-03
3.681503999999999905e+03,2.594307111514027042e-02,6.161842563478403534e-03
3.683431999999999789e+03,2.641721728523904744e-02,8.556571769069876154e-03
3.685360999999999876e+03,2.690216383026466929e-02,1.077100315093337812e-02
3.687289000000000215e+03,2.739740795442457966e-02,1.241876594646296184e-02
3.689217999999999847e+03,2.790346339643079432e-02,-1.661763529232862524e-03
3.691146000000000186e+03,2.841980547465183804e-02,-8.725250361770076069e-03
3.693074999999999818e+03,2.894696981364575095e-02,-1.457628931559984409e-03
3.695003000000000156e+03,2.948440984592792802e-02,5.552634957315172315e-03
3.696931999999999789e+03,3.003268308190243374e-02,6.164283437982920333e-03
3.698860000000000127e+03,3.059122106824574416e-02,7.924190967820488041e-03
