baseline wavenumber (cm-1),baseline absorbance (cm-1),baseline-subtracted absorbance (cm-1)
3199.379,0.204613126442,8.77076189454e-15
3201.308,0.202692787878,0.00190496147537
3203.236,0.200783290536,0.00303966326247
3205.165,0.19888265361,0.00355880861124
3207.093,0.196992847692,0.00448510016557
3209.021,0.195112884933,0.00532431364073
3210.95,0.193241797909,0.00663448642749
3212.878,0.191381526574,0.00829066186531
3214.807,0.189530141187,0.00868506815154
3216.736,0.187688609172,0.00864080999366
3218.664,0.185857877525,0.00878320725845
3220.593,0.184036047148,0.0103139213992
3222.521,0.182225006925,0.011733544833
3224.449,0.180423809861,0.0138031419804
3226.378,0.178631529386,0.0141265610597
3228.306,0.176850023746,0.0133834284106
3230.235,0.175077444907,0.0138112109956
3232.164,0.173314719441,0.0154369405855
3234.092,0.17156275349,0.0158881446721
3236.021,0.169819729661,0.0160822763502
3237.949,0.168087455133,0.0156816788571
3239.877,0.166365023765,0.0157199695951
3241.806,0.164651549838,0.0166146135787
3243.734,0.162948809893,0.0180594378178
3245.663,0.161255037603,0.0169605212141
3247.592,0.159571118686,0.0170868109988
3249.52,0.15789791843,0.0176937499843
3251.448,0.156234561333,0.0191033851271
3253.377,0.154580192317,0.0196215970167
3255.305,0.152936526644,0.0197614533658
3257.234,0.151301859266,0.0197231634505
3259.162,0.149677885016,0.0200809742835
3261.091,0.148062919275,0.0203686177348
3263.02,0.146457806906,0.0220415290829
3264.948,0.144863372345,0.022218475701
3266.876,0.143278780944,0.0217236654114
3268.805,0.141703218477,0.0229588350635
3270.733,0.140138318499,0.0235658123463
3272.662,0.138582457669,0.0224656306793
3274.591,0.137036450212,0.0221583495363
3276.519,0.135501089922,0.0227630465143
3278.448,0.133974784103,0.0243924487205
3280.376,0.132459115237,0.024799219844
3282.304,0.13095328953,0.0257186193258
3284.233,0.129456533612,0.0265950495292
3286.161,0.127970399329,0.0267273010973
3288.09,0.126493345048,0.0268214658835
3290.019,0.12502614414,0.027660652533
3291.947,0.123569549545,0.0290529429408
3293.875,0.12212279811,0.0304116255986
3295.804,0.120685147104,0.0310930034521
3297.732,0.119258087092,0.0317012335203
3299.661,0.117840137723,0.0310139197317
3301.589,0.116432769135,0.0321294731241
3303.518,0.115034521403,0.0344957784504
3305.447,0.113646127043,0.0354529153834
3307.375,0.112268298144,0.0350449051831
3309.303,0.110900312404,0.0342576522289
3311.232,0.109541467946,0.0340697014116
3313.16,0.10819317363,0.0345935741162
3315.089,0.106854030809,0.0366669728954
3317.017,0.105525427917,0.0374821907317
3318.946,0.104205986733,0.0374341195086
3320.875,0.102896398922,0.0388929349701
3322.803,0.101597335718,0.040035780938
3324.731,0.100308115673,0.0405026762469
3326.66,0.0990280777641,0.0397550353973
3328.588,0.0977585491429,0.0401064819607
3330.517,0.0964982128711,0.04097714884
3332.445,0.0952483756737,0.0418327734142
3334.374,0.094007741039,0.0416747919868
3336.302,0.0927775952654,0.0412539976612
3338.231,0.0915566622679,0.0409340765313
3340.159,0.0903462079181,0.0431646608874
3342.088,0.0891449765578,0.044438583937
3344.016,0.0879542136318,0.045520309329
3345.945,0.0867726839087,0.0466826176919
3347.873,0.0856016124064,0.0485072154401
3349.802,0.0844397843205,0.0495058367042
3351.73,0.083288404242,0.0511363528699
3353.659,0.0821462777933,0.0511370800036
3355.587,0.0810145891386,0.050216276871
3357.516,0.0798921643271,0.051163263086
3359.444,0.0787801670962,0.0505442894635
3361.373,0.0776774439219,0.0511179010142
3363.302,0.0765845741201,0.0518543019545
3365.23,0.0755021165776,0.0501098216345
3367.158,0.0744295021943,0.0504789342354
3369.087,0.0733661822943,0.0501167281691
3371.015,0.0723132593348,0.0511095406932
3372.944,0.071269641072,0.0517928458225
3374.872,0.0702364095363,0.0514760389155
3376.801,0.0692124929107,0.0520103350756
3378.729,0.0681989527987,0.0530371554
3380.658,0.0671947378103,0.0530163476723
3382.586,0.0662008891222,0.053463610773
3384.515,0.0652163757709,0.0533154617911
3386.443,0.0642422185066,0.0547698035805
3388.372,0.0632774067925,0.0565698707639
3390.3,0.062322940952,0.0572241339065
3392.229,0.0613778308751,0.0565612898351
3394.157,0.0604430564583,0.0578591732195
3396.086,0.0595176480186,0.0591487390646
3398.014,0.0586025650256,0.0613694766323
3399.943,0.0576968582231,0.0637706052563
3401.871,0.0568014666539,0.0647309999708
3403.8,0.0559154614886,0.0644483464376
3405.728,0.0550397613432,0.0654519559979
3407.657,0.0541734578151,0.0675120807325
3409.585,0.0533174490935,0.0677341340476
3411.514,0.0524708472025,0.0671006912052
3413.442,0.0516345299047,0.067791275645
3415.371,0.050807629651,0.0666471127828
3417.299,0.0499910037769,0.06516975669
3419.228,0.0491838051603,0.0647114908486
3421.156,0.0483868707101,0.0653270455547
3423.085,0.0475993737307,0.0668966771535
3425.013,0.0468221307043,0.0691197159442
3426.942,0.0460543353621,0.069807131053
3428.87,0.0452967837594,0.0700170486303
3430.799,0.0445486900544,0.0703688328365
3432.727,0.0438108298755,0.07226277046
3434.656,0.0430824378077,0.0737673559996
3436.584,0.0423642690526,0.0754060531673
3438.513,0.0416555786219,0.077266277812
3440.441,0.0409571012906,0.0777868701919
3442.37,0.0402681124972,0.0767410438599
3444.298,0.0395893265897,0.0781355633244
3446.227,0.0389200394334,0.0768624446653
3448.155,0.0382609449497,0.0762368533309
3450.084,0.0376113594306,0.077946758973
3452.012,0.0369719563707,0.0792138268124
3453.941,0.0363420724888,0.0816610029289
3455.869,0.0357223608526,0.082297140091
3457.798,0.0351121786079,0.0827297868636
3459.726,0.0345121583956,0.0847672153376
3461.655,0.033921677788,0.0847719686787
3463.583,0.0333413489995,0.0861735737656
3465.512,0.0327705700291,0.0876746665684
3467.44,0.0322099326644,0.0887745504558
3469.369,0.0316588553312,0.0928057424182
3471.297,0.0311179093902,0.096092896509
3473.226,0.0305865336942,0.0963401455537
3475.154,0.0300652791771,0.0983547250167
3477.083,0.0295536051182,0.102257745969
3479.011,0.0290520420249,0.103176237838
3480.94,0.0285600696032,0.101395197049
3482.868,0.0280781979337,0.10246524234
3484.797,0.0276059271492,0.10700824773
3486.725,0.0271437469034,0.107242567488
3488.654,0.0266911777562,0.104134292293
3490.582,0.0262486889341,0.104983574993
3492.511,0.0258158214241,0.104122670223
3494.439,0.0253930240259,0.100949325873
3496.368,0.024979858153,0.0978607094014
3498.296,0.0245767521786,0.0990906833425
3500.225,0.0241832879429,0.0999084154191
3502.153,0.0237998733922,0.0971161117899
3504.082,0.0234261107937,0.0972927680768
3506.01,0.0230623876669,0.104560104819
3507.939,0.0227083267055,0.110041376237
3509.867,0.0223642950025,0.11406787107
3511.796,0.0220299356783,0.118515601471
3513.724,0.0217055953991,0.121912214065
3515.653,0.0213909377121,0.126498207462
3517.581,0.0210862888566,0.132019183989
3519.51,0.0207913328068,0.137314140039
3521.438,0.0205063753752,0.14035963427
3523.367,0.0202311209626,0.138654040147
3525.295,0.0199658549547,0.140821871333
3527.224,0.0197103021793,0.13948414809
3529.152,0.0194647275952,0.135183696253
3531.081,0.0192288764569,0.13342716604
3533.009,0.0190029932966,0.131182580199
3534.938,0.0187868437956,0.127731643658
3536.866,0.0185806520591,0.122991305724
3538.795,0.0183842041952,0.123815068888
3540.723,0.0181977038825,0.12466313347
3542.652,0.0180209576558,0.121672898499
3544.58,0.0178541487669,0.111625826071
3546.509,0.0176971041774,0.100964739675
3548.437,0.0175499867122,0.10093816594
3550.366,0.0174126437599,0.102724352116
3552.294,0.0172852177186,0.101359851129
3554.223,0.0171675764035,0.109840531516
3556.151,0.0170598417859,0.125184164645
3558.08,0.016961902108,0.141677225592
3560.008,0.0168738589142,0.156965520411
3561.937,0.0167956208735,0.169810935358
3563.865,0.0167272691035,0.176132170332
3565.794,0.0166687326999,0.17101002595
3567.722,0.0166200723537,0.173847880397
3569.651,0.0165812375873,0.204119468361
3571.579,0.0165522686649,0.228296406809
3573.508,0.0165331355357,0.225495591661
3575.436,0.0165238580371,0.195337119107
3577.365,0.0165244265451,0.158617112562
3579.293,0.0165348404703,0.128289021975
3581.222,0.0165551106155,0.107123158763
3583.15,0.0165852159644,0.0939781446283
3585.079,0.0166251877468,0.0845567511642
3587.007,0.0166749845196,0.0726022923379
3588.936,0.0167346579391,0.0775828090351
3590.864,0.0168041461356,0.0955876900285
3592.793,0.0168835211924,0.104872961648
3594.721,0.0169727008127,0.116215598621
3596.65,0.0170717775066,0.136774591404
3598.578,0.0171806485508,0.14247651228
3600.507,0.0172994268819,0.120964360076
3602.435,0.0174279893498,0.0921418016616
3604.364,0.0175664693181,0.0732904538664
3606.292,0.0177147232098,0.0558863112489
3608.221,0.0178729048152,0.041910767513
3610.149,0.0180408501307,0.0404266832445
3612.078,0.0182187333734,0.0362329336427
3614.006,0.0184063701127,0.0277972365134
3615.935,0.0186039549925,0.0320817233467
3617.863,0.0188112831556,0.0303831671135
3619.792,0.0190285696726,0.025170423827
3621.72,0.0192555892595,0.0318756751565
3623.649,0.0194925774137,0.0365132239423
3625.577,0.0197392884244,0.033877822081
3627.506,0.0199959782158,0.0233750988793
3629.434,0.0202623806502,0.00277214790223
3631.363,0.0205387720788,0.0180038993408
3633.291,0.0208248659371,0.0274791111371
3635.22,0.0211209590028,0.0319306940342
3637.148,0.0214267442849,0.0364368889017
3639.077,0.0217425389878,0.0361546442092
3641.005,0.0220680156936,0.0365249807417
3642.934,0.0224035120338,0.0335683898325
3644.862,0.0227486801634,0.0326035949467
3646.791,0.0231038781407,0.0171480964172
3648.719,0.0234687376941,-0.00787567136293
3650.648,0.0238436373086,-0.00922561815714
3652.576,0.0242281882858,0.0148659614311
3654.505,0.0246227895375,0.0260838575583
3656.433,0.0250270319385,0.018447141543
3658.362,0.0254413348273,0.0212962761323
3660.29,0.0258652686521,0.0277658210243
3662.219,0.0262992731782,0.0295744250115
3664.147,0.0267428984267,0.0309592753343
3666.076,0.02719660459,0.0298604304278
3668.004,0.0276599212624,0.0222841620535
3669.933,0.0281333290628,0.00352250374634
3671.861,0.0286163371589,0.0070483724238
3673.79,0.0291094465965,0.0123615116756
3675.718,0.0296121461165,-0.0126008928838
3677.647,0.0301249571913,-0.00551602450098
3679.575,0.030647348135,0.00645791502289
3681.504,0.031179860847,0.0151009806991
3683.432,0.0317219432145,0.017636412835
3685.361,0.0322741575637,0.0150771390044
3687.289,0.032835931355,0.00741115049306
3689.218,0.0334078473413,-0.0147606816183
3691.146,0.0339893125564,-0.012217802107
3693.075,0.03458093018,0.00135462584156
3695.003,0.0351820868189,0.00771090262686
3696.932,0.0357934060796,0.00545493389386
3698.86,0.0364142541423,0.00483408583117
