baseline wavenumber (cm-1),baseline absorbance (cm-1),baseline-subtracted absorbance (cm-1)
3199.379,0.196250884464,7.32747196253e-15
3201.308,0.194322781505,-0.000234031883851
3203.236,0.192405523793,0.000608728709068
3205.165,0.190497122471,0.000556147517958
3207.093,0.188599556183,0.00133221375572
3209.021,0.186711833054,0.00503687815642
3210.95,0.184832981634,0.00650382216715
3212.878,0.182964949928,0.00653621250987
3214.807,0.181105800145,0.00533056900452
3216.736,0.179256503735,0.00436221657212
3218.664,0.177418011718,0.00378940766921
3220.593,0.175588416945,0.00734143244326
3222.521,0.173769616352,0.00819490401588
3224.449,0.171960658918,0.00933823929273
3226.378,0.170160614047,0.012563028933
3228.306,0.168371348037,0.0120976704612
3230.235,0.166591004803,0.00661328105606
3232.164,0.164820514941,0.00528006122382
3234.092,0.163060788619,0.0106054400271
3236.021,0.161310000395,0.0150005221967
3237.949,0.159569965497,0.0110855485027
3239.877,0.157839773758,0.00757971476891
3241.806,0.156118535436,0.00973762548607
3243.734,0.154408035121,0.0146407872789
3245.663,0.152706498435,0.0150954827634
3247.592,0.151014815123,0.0114146804802
3249.52,0.149333854496,0.00879563099867
3251.448,0.147662737029,0.0113587933463
3253.377,0.146000603618,0.0127373929455
3255.305,0.144349177574,0.0139041328474
3257.234,0.1427067458,0.0158963068632
3259.162,0.141075011181,0.0167426376621
3261.091,0.139452281044,0.0146506199972
3263.02,0.13783940428,0.0153168678317
3264.948,0.136237209348,0.0160866560109
3266.876,0.134644857576,0.0158448826441
3268.805,0.133061530714,0.0187079022184
3270.733,0.131488870366,0.0192490251161
3272.662,0.12992524514,0.0192757050263
3274.591,0.128371473288,0.0161205918085
3276.519,0.126828352628,0.0156299512232
3278.448,0.125294282413,0.0181045854737
3280.376,0.123770853176,0.016971590976
3282.304,0.122257267099,0.0167339388038
3284.233,0.120752746786,0.0165650536791
3286.161,0.119258852133,0.014775313439
3288.09,0.117774033456,0.013065954414
3290.019,0.116299068153,0.0159363508306
3291.947,0.114834713188,0.0226397637152
3293.875,0.113380201382,0.0245491425987
3295.804,0.11193478598,0.0226730175174
3297.732,0.110499965598,0.021854729641
3299.661,0.109074251833,0.02348058492
3301.589,0.107659122875,0.0259676839579
3303.518,0.106253110748,0.0269314642044
3305.447,0.104856951993,0.0236849463193
3307.375,0.103471362723,0.0216944110566
3309.303,0.102095616612,0.0248850768072
3311.232,0.100729007759,0.0270770167026
3313.16,0.0993729530724,0.028646353508
3315.089,0.0980260458564,0.0273039854789
3317.017,0.0966896825934,0.0227472930459
3318.946,0.0953624770146,0.0206978686844
3320.875,0.0940451248083,0.0253170504671
3322.803,0.0927383012338,0.0295850587177
3324.731,0.0914413208184,0.0282271316227
3326.66,0.0901535185139,0.0232079491905
3328.588,0.0888762295223,0.0242987426802
3330.517,0.087608128855,0.0299891621588
3332.445,0.0863505312872,0.0336863634868
3334.374,0.0851021322571,0.0310340246215
3336.302,0.0838642261131,0.0315274649816
3338.231,0.0826355287202,0.0318696769808
3340.159,0.081417314,0.0334108473262
3342.088,0.0802083182443,0.0346274241999
3344.016,0.0790097949479,0.0342318910928
3345.945,0.0778205008293,0.0323715541591
3347.873,0.0766416689567,0.0329732102508
3349.802,0.0754720764753,0.0368851458031
3351.73,0.0743129360265,0.0410145682695
3353.659,0.0731630451823,0.0406467192976
3355.587,0.0720235961573,0.0388168971208
3357.516,0.0708934069503,0.0385435686891
3359.444,0.069773649349,0.0384543906793
3361.373,0.0686631617792,0.0358223330151
3363.302,0.067562527582,0.0359389381008
3365.23,0.0664723096691,0.0368906742589
3367.158,0.0653919349154,0.0404990991491
3369.087,0.06432085062,0.0408166203191
3371.015,0.0632601672901,0.0403322718083
3372.944,0.0622087846318,0.0385316378891
3374.872,0.0611677927257,0.0366923103775
3376.801,0.0601361117047,0.0392280852022
3378.729,0.0591148112224,0.0412829447667
3380.658,0.0581028318385,0.0387575745094
3382.586,0.05710122278,0.037084059743
3384.515,0.0561089450333,0.0389324984116
3386.443,0.0551270273985,0.0421195105576
3388.372,0.054154451289,0.0411836665721
3390.3,0.0531922250781,0.0396451346712
3392.229,0.0522393506058,0.0387699488989
3394.157,0.0512968158186,0.0402103104323
3396.086,0.0503636429835,0.0422432507798
3398.014,0.0494407996201,0.0434572090729
3399.943,0.0485273284222,0.0436994986273
3401.871,0.0476241764826,0.0479823129544
3403.8,0.0467304069218,0.0497110163067
3405.728,0.045846946406,0.0483762417068
3407.657,0.0449728784825,0.0468804521554
3409.585,0.0441091093905,0.0493499020317
3411.514,0.0432547431041,0.0510154479401
3413.442,0.0424106654359,0.0459002614822
3415.371,0.0415760007867,0.0418835160434
3417.299,0.0407516145423,0.0438809539405
3419.228,0.0399366515302,0.0447570713041
3421.156,0.0391319567096,0.0440890076086
3423.085,0.0383366953348,0.0418775975996
3425.013,0.0375516919379,0.0435399890486
3426.942,0.0367761322003,0.0465555164402
3428.87,0.0360108202272,0.0482452193967
3430.799,0.0352549621267,0.0487241139877
3432.727,0.0345093415775,0.0474951060117
3434.656,0.0337731851142,0.0485521964687
3436.584,0.0330472559888,0.0494246938748
3438.513,0.0323308011627,0.0479289784795
3440.441,0.031624563461,0.0483739203154
3442.37,0.0309278102721,0.0493259044757
3444.298,0.0302412639942,0.0492760714955
3446.227,0.0295642124425,0.0504297226632
3448.155,0.0288973575884,0.0517015507306
3450.084,0.0282400076738,0.0517968871003
3452.012,0.0275928442435,0.0534553716667
3453.941,0.0269551959662,0.0514381124337
3455.869,0.0263277239597,0.0488739337781
3457.798,0.0257097773195,0.0521538636388
3459.726,0.0251019967368,0.059005958383
3461.655,0.0245037517338,0.0612740709692
3463.583,0.0239156625748,0.063071601147
3465.512,0.023337119209,0.0648757585834
3467.44,0.0227687214739,0.0641573878964
3469.369,0.0222098797453,0.0664745435844
3471.297,0.0216611734339,0.0725261307205
3473.226,0.0211220333425,0.0752830005198
3475.154,0.0205930184549,0.0751676203806
3477.083,0.0200735800007,0.0773523777472
3479.011,0.0195642565369,0.0836410401375
3480.94,0.0190645197198,0.0891832312152
3482.868,0.0185748876799,0.0909849020704
3484.797,0.0180948525,0.0899598326309
3486.725,0.0176249118838,0.0925550133158
3488.654,0.0171645783411,0.093493462698
3490.582,0.0167143291487,0.0919867726404
3492.511,0.0162736972432,0.0873131823687
3494.439,0.0158431394746,0.0870867099139
3496.368,0.0154222092063,0.0841967132642
3498.296,0.0150113428615,0.0819840073862
3500.225,0.0146101142303,0.0826450156595
3502.153,0.0142189393093,0.0865861754183
3504.082,0.0138374123153,0.0926970059602
3506.01,0.0134659288181,0.101762010129
3507.939,0.0131041034613,0.106465289038
3509.867,0.0127523113879,0.111375354639
3511.796,0.0124101876683,0.116617407601
3513.724,0.0120780870186,0.121492619542
3515.653,0.0117556649362,0.130946750913
3517.581,0.0114432557104,0.141645291747
3519.51,0.0111405352651,0.151508307351
3521.438,0.0108478174631,0.163839840477
3523.367,0.010564798655,0.17311355978
3525.295,0.0102917722768,0.173791923266
3527.224,0.0100284551059,0.168871777382
3529.152,0.00977512015143,0.162909606423
3531.081,0.00953150461775,0.153983607077
3533.009,0.00929786108707,0.144916735092
3534.938,0.00907394719058,0.137652020665
3536.866,0.00885999508368,0.135750335453
3538.795,0.00865578282437,0.133611476854
3540.723,0.00846152214127,0.134659876828
3542.652,0.00827701151914,0.134493634392
3544.58,0.00810244225983,0.128839840162
3546.509,0.00793763327489,0.11738532235
3548.437,0.00778275543937,0.106232204633
3550.366,0.00763764809161,0.10211823991
3552.294,0.00750246167988,0.108767628283
3554.223,0.00737705596931,0.121031414666
3556.151,0.00726156098137,0.137431151037
3558.08,0.00715585690798,0.160131113677
3560.008,0.00706005334383,0.186647618748
3561.937,0.00697405090763,0.207067695782
3563.865,0.00689793876727,0.22303180954
3565.794,0.00683163796825,0.238036955987
3567.722,0.00677521725168,0.259423610202
3569.651,0.00672861808984,0.288202141033
3571.579,0.00669188879707,0.313360168213
3573.508,0.00666499127242,0.308946552243
3575.436,0.00664795340343,0.267687940663
3577.365,0.00664075751597,0.208391588587
3579.293,0.00664341107077,0.157757175202
3581.222,0.00665591682049,0.124324574436
3583.15,0.00667826179909,0.103373795211
3585.079,0.00671046918599,0.0913861647976
3587.007,0.00675250558838,0.0911283192373
3588.936,0.00680441461247,0.091448895809
3590.864,0.00686614243864,0.0932986205251
3592.793,0.00693775309992,0.103221955785
3594.721,0.00701917234989,0.121282151819
3596.65,0.00711048464834,0.136755380105
3598.578,0.0072115953221,0.1468129675
3600.507,0.00732260925774,0.130009342627
3602.435,0.00744341135529,0.091175308952
3604.364,0.00757412692812,0.0664994604569
3606.292,0.00771462044946,0.0633730172742
3608.221,0.00786503765947,0.0593461217462
3610.149,0.0080252226046,0.0513783961157
3612.078,0.0081953414518,0.0495303231595
3614.006,0.00837521782071,0.047027592247
3615.935,0.0085650383051,0.0435596963558
3617.863,0.00876460609781,0.0450512232765
3619.792,0.00897412821937,0.0448720256268
3621.72,0.00919338743588,0.0432452055086
3623.649,0.00942261119463,0.0397237549228
3625.577,0.00966156183492,0.0380327674888
3627.506,0.00991048723085,0.0385080915622
3629.434,0.0101691292949,0.042416537338
3631.363,0.0104377563281,0.0327033535476
3633.291,0.0107160898159,0.029049906343
3635.22,0.0110044184862,0.0301726764294
3637.148,0.0113024433979,0.0311548496376
3639.077,0.0116104737054,0.0318303430337
3641.005,0.0119281900408,0.0281122425883
3642.934,0.0122559219855,0.0214163715554
3644.862,0.0125933297448,0.0186691790999
3646.791,0.0129407633266,0.0228592973223
3648.719,0.0132978625097,0.0286661524504
3650.648,0.0136649977287,0.0258119051319
3652.576,0.0140417883355,0.0164201544523
3654.505,0.0144286251918,0.0123999404607
3656.433,0.0148251072224,0.0162079464519
3658.362,0.0152316457158,0.0148921792109
3660.29,0.0156478191702,0.00953867633168
3662.219,0.0160740593008,0.00812032056376
3664.147,0.016509924179,0.00904349743226
3666.076,0.0169558659468,0.00577586355894
3668.004,0.0174114222488,0.0162679470022
3669.933,0.0178770656537,0.0266230859686
3671.861,0.0183523133795,0.0166128134779
3673.79,0.0188376584217,0.0122434089998
3675.718,0.0193325975712,0.0220269495833
3677.647,0.0198376442506,0.018117980939
3679.575,0.0203522748239,0.0116723890799
3681.504,0.0208770231404,0.00333352977576
3683.432,0.0214113451376,0.00191171156917
3685.361,0.0219557950913,0.00543124625107
3687.289,0.0225098085122,0.0106525284937
3689.218,0.0230739601031,0.0130591643283
3691.146,0.0236476649479,0.00883894174374
3693.075,0.0242315181759,0.00240903575108
3695.003,0.0248249144445,0.000239272354288
3696.932,0.0254284693097,-0.00188454936633
3698.86,0.026041557002,-0.00249763705864
