baseline wavenumber (cm-1),baseline absorbance (cm-1),baseline-subtracted absorbance (cm-1)
3199.379,0.222403019501,9.21485110439e-15
3201.308,0.220359813375,-0.000821126018948
3203.236,0.218327512165,0.000232283738733
3205.165,0.216304007676,0.001554383321
3207.093,0.214291397891,0.000896272480361
3209.021,0.212288631264,0.00132323705184
3210.95,0.210294676677,0.00267799404346
3212.878,0.208311601475,0.00328621777477
3214.807,0.206337348525,0.00361407385612
3216.736,0.204372948947,0.00430497095223
3218.664,0.202419413433,0.00511885454783
3220.593,0.200474715493,0.00668891070432
3222.521,0.198540871402,0.00833723022639
3224.449,0.196616870471,0.0100574847398
3226.378,0.194701722432,0.00933825799669
3228.306,0.192797412925,0.0091135397555
3230.235,0.190901966524,0.00957682008421
3232.164,0.189016373495,0.0100414303772
3234.092,0.187141603676,0.00903649096301
3236.021,0.185275712284,0.00901414582692
3237.949,0.183420633889,0.0109915419688
3239.877,0.181575398653,0.0122901916174
3241.806,0.179739057163,0.0133961214205
3243.734,0.177913513351,0.0136710256858
3245.663,0.176096873499,0.0123930265504
3247.592,0.174290087019,0.0120847644527
3249.52,0.172494082895,0.0114753027207
3251.448,0.17070792193,0.0119925044347
3253.377,0.168930685352,0.0134929534264
3255.305,0.167164215811,0.0147512801002
3257.234,0.16540668087,0.015597722569
3259.162,0.163659902753,0.0163327581824
3261.091,0.161922069449,0.0157692704546
3263.02,0.160194089518,0.0165256979988
3264.948,0.158476851089,0.01693867977
3266.876,0.156769455819,0.0181969941701
3268.805,0.15507102579,0.0184136320698
3270.733,0.153383321944,0.0184192921607
3272.662,0.151704593552,0.0185306060007
3274.591,0.150035718532,0.0202571451008
3276.519,0.148377554375,0.0216332794826
3278.448,0.146728380993,0.0218656638806
3280.376,0.145089908259,0.0220265382358
3282.304,0.143461278685,0.023260955187
3284.233,0.141841655204,0.0242735331655
3286.161,0.140232717053,0.0239149029929
3288.09,0.13863279521,0.0224020129261
3290.019,0.137042726739,0.0235629208463
3291.947,0.135463328277,0.0247404181412
3293.875,0.133893772974,0.0248729146618
3295.804,0.132333254404,0.025117294278
3297.732,0.130783390525,0.0255872671948
3299.661,0.129242573593,0.0260261759699
3301.589,0.127712401138,0.026009203671
3303.518,0.126191285843,0.0267681046651
3305.447,0.124680023921,0.0289129725144
3307.375,0.123179391154,0.0288678584443
3309.303,0.121688601546,0.0281495895493
3311.232,0.120206889526,0.0284479647416
3313.16,0.118735791342,0.0292983877317
3315.089,0.117273780958,0.030546516798
3317.017,0.115822374198,0.0318591802858
3318.946,0.114380065452,0.0315132035772
3320.875,0.112947610079,0.0308666067384
3322.803,0.111525743007,0.0297631365628
3324.731,0.110113719094,0.0299974153158
3326.66,0.108710813622,0.0312570342843
3328.588,0.107318481133,0.0323659390805
3330.517,0.105935277299,0.0328195280411
3332.445,0.104562636234,0.0322141164048
3334.374,0.103199134037,0.0320727608401
3336.302,0.101846184395,0.0330318473375
3338.231,0.100502383835,0.0343095963145
3340.159,0.0991691256176,0.0345601677353
3342.088,0.0978450266947,0.0350179075333
3344.016,0.0965314599009,0.0364932832318
3345.945,0.0952270626152,0.0358461882411
3347.873,0.0939331872452,0.0351239176685
3349.802,0.0926484915967,0.0353304697509
3351.73,0.0913743076505,0.0366333109977
3353.659,0.0901093136391,0.0378581148923
3355.587,0.0888548211168,0.038431472306
3357.516,0.0876095287426,0.0378839359949
3359.444,0.086374727644,0.0381311086599
3361.373,0.085149136907,0.0379842942805
3363.302,0.0839333995426,0.0383301777272
3365.23,0.0827281381324,0.0394610000517
3367.158,0.0815327198814,0.0394667908476
3369.087,0.0803465324188,0.0393966003134
3371.015,0.0791708055916,0.0412506664151
3372.944,0.0780043197661,0.0413851399389
3374.872,0.0768482843627,0.0410747603007
3376.801,0.0757015001745,0.0401239698752
3378.729,0.0745651561948,0.0396436227246
3380.658,0.0734380736438,0.0395076871726
3382.586,0.0723214210879,0.0398764540781
3384.515,0.071214040174,0.0403949624121
3386.443,0.070117079042,0.0415342105365
3388.372,0.0690293997653,0.0418834401033
3390.3,0.067952130057,0.0416623943017
3392.229,0.0668841524175,0.0404091305908
3394.157,0.0658265741331,0.0401390371062
3396.086,0.0647782981307,0.0403579987869
3398.014,0.06374041127,0.0423489156329
3399.943,0.0627118369049,0.0416804186343
3401.871,0.061693641468,0.0410808745032
3403.8,0.06068476874,0.0429134698844
3405.728,0.059686264727,0.0451634591844
3407.657,0.0586970936362,0.0451625554866
3409.585,0.0577182810469,0.0438896731014
3411.514,0.0567488115933,0.0420129833323
3413.442,0.0557896904278,0.0420173271161
3415.371,0.0548399226114,0.0412266881386
3417.299,0.0539004928696,0.0403219157415
3419.228,0.0529704266904,0.039020207265
3421.156,0.0520506883725,0.0381555044003
3423.085,0.0511403238304,0.038133108755
3425.013,0.0502402769363,0.037981572508
3426.942,0.0493496140314,0.0370776593312
3428.87,0.0484692585611,0.0366006372941
3430.799,0.0475982972934,0.0355508604615
3432.727,0.0467376332469,0.0357772196224
3434.656,0.0458863736164,0.0358180368121
3436.584,0.0450454009936,0.0352572480593
3438.513,0.0442138430003,0.0333932723977
3440.441,0.0433925618013,0.0337445039707
3442.37,0.0425807054452,0.0337937965468
3444.298,0.04177911567,0.0329769477954
3446.227,0.0409869609511,0.033994167168
3448.155,0.0402050625997,0.0362756810922
3450.084,0.0394326095179,0.0367629590848
3452.012,0.0386704025903,0.0366979485664
3453.941,0.0379176511458,0.0371218400124
3455.869,0.037175135642,0.0376599101398
3457.798,0.0364420858346,0.0368608428017
3459.726,0.0357192617546,0.036142414348
3461.655,0.0350059135844,0.0358359819912
3463.583,0.0343027809281,0.0371863502664
3465.512,0.0336091343951,0.037344944028
3467.44,0.0329256931627,0.0376079616916
3469.369,0.0322517482669,0.0377384663134
3471.297,0.0315879984582,0.0390110090207
3473.226,0.0309337551996,0.0412186876606
3475.154,0.0302896968147,0.042947879197
3477.083,0.0296551551933,0.0428289434997
3479.011,0.0290307882322,0.0427110164788
3480.94,0.0284159482479,0.0423252972962
3482.868,0.0278112727106,0.0435967792919
3484.797,0.0272161343635,0.044763316255
3486.725,0.02663115025,0.0464502085254
3488.654,0.0260557135401,0.0470574478494
3490.582,0.0254904208504,0.0469901830497
3492.511,0.0249346857777,0.0472156602067
3494.439,0.0243890845118,0.0477004520787
3496.368,0.0238530510763,0.0481840636228
3498.296,0.0233271412342,0.0491870126765
3500.225,0.0228108094358,0.0481785663942
3502.153,0.0223045910175,0.0471579098562
3504.082,0.0218079608563,0.0485806600984
3506.01,0.0213214338618,0.0516201332033
3507.939,0.0208445053378,0.0539486029309
3509.867,0.0203776697671,0.0597331151634
3511.796,0.0199204428803,0.0637732035865
3513.724,0.0194732987333,0.0640756633132
3515.653,0.0190357734837,0.0630076318423
3517.581,0.0186083207605,0.0641627004179
3519.51,0.0181904971481,0.0670342180263
3521.438,0.0177827358488,0.069432613281
3523.367,0.0173846138735,0.0710888606494
3525.295,0.0169965439979,0.0723223208934
3527.224,0.0166181236599,0.0697389043684
3529.152,0.0162497452081,0.0693555528977
3531.081,0.0158910265072,0.0706456338688
3533.009,0.0155423394792,0.0712040084624
3534.938,0.0152033224155,0.0680398452646
3536.866,0.0148743268113,0.0674591463137
3538.795,0.0145550113848,0.0685438213544
3540.723,0.0142457072044,0.0674342396748
3542.652,0.0139460934151,0.0634083484665
3544.58,0.0136564806584,0.060475063341
3546.509,0.0133765685063,0.0593843177731
3548.437,0.0131066471735,0.0609644369112
3550.366,0.0128464366585,0.060570771701
3552.294,0.0125962067495,0.0621969015192
3554.223,0.0123556978717,0.0684012742398
3556.151,0.0121251593864,0.0750195949296
3558.08,0.0119043521459,0.0825882039455
3560.008,0.0116935050844,0.0919180137525
3561.937,0.011492399481,0.0999418634672
3563.865,0.0113012438433,0.103439792013
3565.794,0.0111198398771,0.0989301356593
3567.722,0.0109483756632,0.0992151806379
3569.651,0.0107866733342,0.107988751283
3571.579,0.0106349005441,0.112012404971
3573.508,0.0104928998523,0.10667282322
3575.436,0.010360818486,0.0943291933963
3577.365,0.0102385194313,0.0825059413222
3579.293,0.0101261294888,0.0726697047182
3581.222,0.0100235320713,0.06546329256
3583.15,0.00993083355261,0.0604357702078
3585.079,0.00984793777233,0.0564087897037
3587.007,0.00977493067739,0.0576826075906
3588.936,0.0097117365343,0.0698545596843
3590.864,0.00965842086315,0.0801262999029
3592.793,0.00961492835724,0.0886939414268
3594.721,0.00958130410988,0.108044683169
3596.65,0.00955751324116,0.132184640949
3598.578,0.00954358041759,0.1372048644
3600.507,0.00953949118605,0.117498671951
3602.435,0.00954524978627,0.0868939058718
3604.364,0.00956086219191,0.061994670065
3606.292,0.00958631221593,0.0449010016864
3608.221,0.00962162625876,0.0352347377589
3610.149,0.00966676770657,0.0339374120656
3612.078,0.00972178338657,0.0305305406506
3614.006,0.00978661625817,0.03027698897
3615.935,0.00986133357537,0.0279732928313
3617.863,0.00994585787075,0.0251963801945
3619.792,0.0100402768251,0.0279673418231
3621.72,0.0101444925443,0.0296402282217
3623.649,0.0102586131359,0.0283043280817
3625.577,0.0103825202788,0.0268024241539
3627.506,0.0105163425076,0.020980477231
3629.434,0.0106599410744,0.0236697576745
3631.363,0.0108134649403,0.0284334072202
3633.291,0.0109767549308,0.0263934135182
3635.22,0.011149980434,0.0268181470561
3637.148,0.0113329618483,0.0260106461757
3639.077,0.0115258889886,0.0261626550807
3641.005,0.0117285618267,0.0258914843045
3642.934,0.0119411906042,0.0243466405274
3644.862,0.0121635548661,0.0205407157706
3646.791,0.0123958852808,0.0127547402871
3648.719,0.0126379409665,0.00805927018884
3650.648,0.0128899730184,0.01376620927
3652.576,0.0131517201279,0.0225042524729
3654.505,0.0134234538169,0.018925046917
3656.433,0.0137048923502,0.0186498990106
3658.362,0.0139963276765,0.0217235996318
3660.29,0.0142974576335,0.0212015987724
3662.219,0.014608594597,0.0191168544839
3664.147,0.0149294159778,0.0164702485221
3666.076,0.0152602545784,0.0133932017716
3668.004,0.0156007673831,0.00962254987419
3669.933,0.0159513076209,0.00674737134746
3671.861,0.0163115118493,0.0129650660496
3673.79,0.0166817537243,0.00402279649587
3675.718,0.0170616493765,-0.00114496523592
3677.647,0.0174515928887,0.0103389991292
3679.575,0.0178511799647,0.0108847534944
3681.504,0.0182608251141,0.0108270339759
3683.432,0.0186801036139,0.00790548386076
3685.361,0.0191094504004,0.00429203139171
3687.289,0.019548420324,0.000891224605017
3689.218,0.0199974687477,3.64307420173e-05
3691.146,0.0204561300952,0.00362543836784
3693.075,0.020924880156,0.00751888862847
3695.003,0.0214032329272,0.00580372869994
3696.932,0.0218916846253,0.00353957280112
3698.86,0.0223897288203,0.00304152860613
