wavenumber (/cm),baseline value (/cm),baseline-subtracted absorbance (/cm),
3.199378999999999905e+03,2.312976346911881365e-01,-1.123268978057700984e-03
3.201307999999999993e+03,2.291348639806152221e-01,-9.406862792102899107e-04
3.203235999999999876e+03,2.269837634345890365e-01,2.951206248468229987e-04
3.205164999999999964e+03,2.248421016210038204e-01,2.842624953341643668e-03
3.207092999999999847e+03,2.227120990290387681e-01,3.701526766978435745e-03
3.209021000000000186e+03,2.205926426790796313e-01,3.557261293426150495e-03
3.210949999999999818e+03,2.184826414745302259e-01,3.216034356865682398e-03
3.212878000000000156e+03,2.163842830786357752e-01,4.390001769236318019e-03
3.214806999999999789e+03,2.142953907710705153e-01,5.121873961568712552e-03
3.216735999999999876e+03,2.122170556484341830e-01,6.092860453860371450e-03
3.218664000000000215e+03,2.101503469186525308e-01,6.876844024438555358e-03
3.220592999999999847e+03,2.080931206930003441e-01,9.581497724062137955e-03
3.222521000000000186e+03,2.060475099172798252e-01,9.494287313084992519e-03
3.224449000000000069e+03,2.040124453835687746e-01,7.419880503421905082e-03
3.226378000000000156e+03,2.019868797669523985e-01,8.155139842872638489e-03
3.228306000000000040e+03,1.999729131873024812e-01,1.010593043950425152e-02
3.230235000000000127e+03,1.979684564676702507e-01,1.038896797385402415e-02
3.232164000000000215e+03,1.959745569329705006e-01,1.147869283959579434e-02
3.234092000000000098e+03,1.939922400194333818e-01,1.066964211945264918e-02
3.236021000000000186e+03,1.920194493817177772e-01,1.245088317665676847e-02
3.237949000000000069e+03,1.900582304222417918e-01,1.402647593578909557e-02
3.239876999999999953e+03,1.881075577047752745e-01,1.511290120556529892e-02
3.241806000000000040e+03,1.861664276760954806e-01,1.459016789653155843e-02
3.243733999999999924e+03,1.842368529126900967e-01,1.415696089505258382e-02
3.245663000000000011e+03,1.823168317809908956e-01,1.425397586077592482e-02
3.247592000000000098e+03,1.804073678342241749e-01,1.502121803457179272e-02
3.249519999999999982e+03,1.785094427369351422e-01,1.641171363625792967e-02
3.251447999999999865e+03,1.766220638816520250e-01,1.859677772352330560e-02
3.253376999999999953e+03,1.747442605439211150e-01,1.824371074891195654e-02
3.255304999999999836e+03,1.728779796427026838e-01,1.793471620284459167e-02
3.257233999999999924e+03,1.710212852019559193e-01,1.813721070424023640e-02
3.259161999999999807e+03,1.691761022547950688e-01,1.949467506249979998e-02
3.261090999999999894e+03,1.673405167110324498e-01,1.847571698956396169e-02
3.263019999999999982e+03,1.655154883522023113e-01,1.789550932292149898e-02
3.264947999999999865e+03,1.637019550711578120e-01,1.832776291125393087e-02
3.266876000000000204e+03,1.618989680321192282e-01,2.101369748895620670e-02
3.268804999999999836e+03,1.601056002823249003e-01,2.327102965803695689e-02
3.270733000000000175e+03,1.583237111973510025e-01,2.408405186744211335e-02
3.272661999999999807e+03,1.565514523445372674e-01,2.241347234969082169e-02
3.274590999999999894e+03,1.547897506766524600e-01,2.305973886140466611e-02
3.276518999999999778e+03,1.530395112577949135e-01,2.455879057178145253e-02
3.278447999999999865e+03,1.512989184868942516e-01,2.523196193360510708e-02
3.280376000000000204e+03,1.495697770220942857e-01,2.452149963817040756e-02
3.282304000000000087e+03,1.478511817993037880e-01,2.537887986045561650e-02
3.284233000000000175e+03,1.461422496374424895e-01,2.555440456249680192e-02
3.286161000000000058e+03,1.444447523687166779e-01,2.593127108220816268e-02
3.288090000000000146e+03,1.427569291038359722e-01,2.705606998642973160e-02
3.290018999999999778e+03,1.410796630238877469e-01,2.835023690535509733e-02
3.291947000000000116e+03,1.394138154212747338e-01,2.863935348603341424e-02
3.293875000000000000e+03,1.377585140606640834e-01,2.918326295338624643e-02
3.295804000000000087e+03,1.361129085897552216e-01,2.923279038932080631e-02
3.297731999999999971e+03,1.344787051832092573e-01,2.964239054104012006e-02
3.299661000000000058e+03,1.328542086092809882e-01,2.974965270680107743e-02
3.301588999999999942e+03,1.312411031567961572e-01,3.078153911551750888e-02
3.303518000000000029e+03,1.296377154798520337e-01,3.113808559161257428e-02
3.305447000000000116e+03,1.280448849878403905e-01,3.061881661935639265e-02
3.307375000000000000e+03,1.264634292014719108e-01,2.975814160616974124e-02
3.309302999999999884e+03,1.248925196571093466e-01,3.105764712748582124e-02
3.311231999999999971e+03,1.233313497741335141e-01,3.168330705392674584e-02
3.313159999999999854e+03,1.217815381838356359e-01,3.334026511142362814e-02
3.315088999999999942e+03,1.202414771978403962e-01,3.471050905506556372e-02
3.317016999999999825e+03,1.187127635616000987e-01,3.395932781614163787e-02
3.318945999999999913e+03,1.171938114725925573e-01,3.194750056622264189e-02
3.320875000000000000e+03,1.156854165685139435e-01,3.232125481529268818e-02
3.322802999999999884e+03,1.141883525983899972e-01,3.320475363834296534e-02
3.324731000000000222e+03,1.127018348702719663e-01,3.530534192139878069e-02
3.326659999999999854e+03,1.112251005752291633e-01,3.549328616286839821e-02
3.328588000000000193e+03,1.097596808011793712e-01,3.630015948993547958e-02
3.330516999999999825e+03,1.083040554031207137e-01,3.571848578762015780e-02
3.332445000000000164e+03,1.068597335831249495e-01,3.507294608937061575e-02
3.334373999999999796e+03,1.054252170820504375e-01,3.581303218510811792e-02
3.336302000000000135e+03,1.040019932161193594e-01,3.672528870038715976e-02
3.338231000000000222e+03,1.025885856120254402e-01,3.575569822503099626e-02
3.340159000000000106e+03,1.011864597001554955e-01,3.645278016641662067e-02
3.342088000000000193e+03,9.979416099304927457e-02,3.742963360919449034e-02
3.344016000000000076e+03,9.841313303524046319e-02,3.819507478847328219e-02
3.345945000000000164e+03,9.704194322511483506e-02,3.778773432466775439e-02
3.347873000000000047e+03,9.568201322136715703e-02,3.816262440119422283e-02
3.349802000000000135e+03,9.433193230822567443e-02,3.915487654651994553e-02
3.351730000000000018e+03,9.299310025854268247e-02,4.006360650381446398e-02
3.353659000000000106e+03,9.166412824238179269e-02,3.887817439584717594e-02
3.355586999999999989e+03,9.034639414675993407e-02,4.023381408128001713e-02
3.357516000000000076e+03,8.903853102758674254e-02,4.186463282564267807e-02
3.359443999999999960e+03,8.774189488602246456e-02,4.156822337941767920e-02
3.361373000000000047e+03,8.645514066382986584e-02,4.086114357755277204e-02
3.363302000000000135e+03,8.517894362657330021e-02,4.194275858711304927e-02
3.365230000000000018e+03,8.391395715112182074e-02,4.340788657676641904e-02
3.367157999999999902e+03,8.265951691767980947e-02,4.496051745005491540e-02
3.369086999999999989e+03,8.141498048945905452e-02,4.441894248638234011e-02
3.371014999999999873e+03,8.018163821007817660e-02,4.469403145534167621e-02
3.372943999999999960e+03,7.895821067884156719e-02,4.363705870354994687e-02
3.374871999999999844e+03,7.774596635352182261e-02,4.290449356763448296e-02
3.376800999999999931e+03,7.654364771926580602e-02,4.081913404561832159e-02
3.378728999999999814e+03,7.535250134801074751e-02,4.135527182493969889e-02
3.380657999999999902e+03,7.417129161073887644e-02,4.345682928282201818e-02
3.382585999999999785e+03,7.300124319354139857e-02,4.450507440476025867e-02
3.384514999999999873e+03,7.184114235325367304e-02,4.376332545226524484e-02
3.386443000000000211e+03,7.069219189012088123e-02,4.460802038118194535e-02
3.388371999999999844e+03,6.955319994681730122e-02,4.367079681857222173e-02
3.390300000000000182e+03,6.842534743774209005e-02,4.461821872014715140e-02
3.392228999999999814e+03,6.730746439141910287e-02,4.499163598258260066e-02
3.394157000000000153e+03,6.620070983641213047e-02,4.632683489218369921e-02
3.396085999999999785e+03,6.510393568707328882e-02,4.675444902939274172e-02
3.398014000000000124e+03,6.401827908612389706e-02,4.732509501677706343e-02
3.399943000000000211e+03,6.294261383376920094e-02,4.538852939881932169e-02
3.401871000000000095e+03,6.187805518688094253e-02,4.565504902822059563e-02
3.403800000000000182e+03,6.082349883150683922e-02,4.593329890426589568e-02
3.405728000000000065e+03,5.978003813868326688e-02,4.579966468149243575e-02
3.407657000000000153e+03,5.874659068029686182e-02,4.529970468005872775e-02
3.409585000000000036e+03,5.772422794153087011e-02,4.519450247391432196e-02
3.411514000000000124e+03,5.671188938012505787e-02,4.443740810294360966e-02
3.413442000000000007e+03,5.571062459542375223e-02,4.603657039093012049e-02
3.415371000000000095e+03,5.471939493100208551e-02,4.621510420980434741e-02
3.417298999999999978e+03,5.373922810036191322e-02,4.668480909765682085e-02
3.419228000000000065e+03,5.276910733292083933e-02,4.529315891594187793e-02
3.421155999999999949e+03,5.181003845634180038e-02,4.485477504815627015e-02
3.423085000000000036e+03,5.086102658588842473e-02,4.451600768076469095e-02
3.425012999999999920e+03,4.992305566337051914e-02,4.496828164583788201e-02
3.426942000000000007e+03,4.899515268989773631e-02,4.394379404011328205e-02
3.428869999999999891e+03,4.807827972144096407e-02,4.271419980954038742e-02
3.430798999999999978e+03,4.717148564495587948e-02,4.360987491301449026e-02
3.432726999999999862e+03,4.627571063056024059e-02,4.402955571938393931e-02
3.434655999999999949e+03,4.539002545105574882e-02,4.322768404050392199e-02
3.436583999999999833e+03,4.451534839072124328e-02,4.265335675433079565e-02
3.438512999999999920e+03,4.365077210820089704e-02,4.211037213520341105e-02
3.440440999999999804e+03,4.279719300192397213e-02,4.110354489355749763e-02
3.442369999999999891e+03,4.195372561639132414e-02,4.089576392166582863e-02
3.444297999999999774e+03,4.112124446417908530e-02,4.248382983077680919e-02
3.446226999999999862e+03,4.029888597562703012e-02,4.361297089286586548e-02
3.448155000000000200e+03,3.948750277747592463e-02,4.367432882062360910e-02
3.450083999999999833e+03,3.868625318590801498e-02,4.256362046212580630e-02
3.452012000000000171e+03,3.789596794181804285e-02,4.353837957662931579e-02
3.453940999999999804e+03,3.711582724723427873e-02,4.350582442566564012e-02
3.455869000000000142e+03,3.634663995720543994e-02,4.260564954041901053e-02
3.457797999999999774e+03,3.558760815960226864e-02,4.335507858860343511e-02
3.459726000000000113e+03,3.483951882363811592e-02,4.307314669743744773e-02
3.461655000000000200e+03,3.410159592301909015e-02,4.158929662726884580e-02
3.463583000000000084e+03,3.337460454111251806e-02,4.315021098501703456e-02
3.465512000000000171e+03,3.265779053748119054e-02,4.088309695872816008e-02
3.467440000000000055e+03,3.195189710963575180e-02,4.084755704987075298e-02
3.469369000000000142e+03,3.125619200298501710e-02,4.198145077473647291e-02
3.471297000000000025e+03,3.057139652920071171e-02,4.395705793355064728e-02
3.473226000000000113e+03,2.989680031953412254e-02,4.180642418263902371e-02
3.475153999999999996e+03,2.923310279981450321e-02,4.190810815742795903e-02
3.477083000000000084e+03,2.857961548712850686e-02,4.270108804061822916e-02
3.479010999999999967e+03,2.793701592147002088e-02,4.309300530565995935e-02
3.480940000000000055e+03,2.730463750577172277e-02,4.079351270144537800e-02
3.482867999999999938e+03,2.668313589417081744e-02,4.135941944799026437e-02
3.484797000000000025e+03,2.607186637545311214e-02,4.234974486481757339e-02
3.486724999999999909e+03,2.547146271791689287e-02,4.299967849304020540e-02
3.488653999999999996e+03,2.488130209618688582e-02,4.345085195212994300e-02
3.490581999999999880e+03,2.430199639271179990e-02,4.487115634154470456e-02
3.492510999999999967e+03,2.373294466795883295e-02,4.358586661274466145e-02
3.494438999999999851e+03,2.317473691854488038e-02,4.313578567318665513e-02
3.496367999999999938e+03,2.262679409077961168e-02,4.357354958656789456e-02
3.498295999999999822e+03,2.208968429542679246e-02,4.432545772418294838e-02
3.500224999999999909e+03,2.156285036464566929e-02,4.501452757935497928e-02
3.502152999999999793e+03,2.104683852335398342e-02,4.785491018785581474e-02
3.504081999999999880e+03,2.054111348955700578e-02,4.551165109145971499e-02
3.506010000000000218e+03,2.004619960232290055e-02,4.419922645650653514e-02
3.507938999999999851e+03,1.956158346551006844e-02,4.533784036952459573e-02
3.509867000000000189e+03,1.908776753234064927e-02,5.020011278707703362e-02
3.511795999999999822e+03,1.862426029251196269e-02,5.122361194037994281e-02
3.513724000000000160e+03,1.817154231340012416e-02,4.843110602380784613e-02
3.515652999999999793e+03,1.772914397055558311e-02,4.477110873337641905e-02
3.517581000000000131e+03,1.729752394550843064e-02,4.446483327676964414e-02
3.519510000000000218e+03,1.687623449964448241e-02,4.495132033710880215e-02
3.521438000000000102e+03,1.646571242865846330e-02,4.594255604399899440e-02
3.523367000000000189e+03,1.606553187977866060e-02,4.504939786852801831e-02
3.525295000000000073e+03,1.567610776285377483e-02,4.347581784110832182e-02
3.527224000000000160e+03,1.529703611095811766e-02,4.382658665261196518e-02
3.529152000000000044e+03,1.492870994809436525e-02,4.567424163383204672e-02
3.531081000000000131e+03,1.457074719318285361e-02,4.561675912441520708e-02
3.533009000000000015e+03,1.422351898438378726e-02,4.640925166152731762e-02
3.534938000000000102e+03,1.388666512645286844e-02,4.582221994379875873e-02
3.536865999999999985e+03,1.356053487171138272e-02,4.497681476944892509e-02
3.538795000000000073e+03,1.324478991076816214e-02,4.428932512006156230e-02
3.540722999999999956e+03,1.293975761008780978e-02,4.321611017521487241e-02
3.542652000000000044e+03,1.264512154612518202e-02,4.187221394361473337e-02
3.544579999999999927e+03,1.236118719950951572e-02,4.195903922321342350e-02
3.546509000000000015e+03,1.208766003253103349e-02,4.179336695624891185e-02
3.548436999999999898e+03,1.182482363997650054e-02,4.386809054176787903e-02
3.550365999999999985e+03,1.157240536997861113e-02,4.531428218687971743e-02
3.552293999999999869e+03,1.133066693148521153e-02,4.680538886554286293e-02
3.554222999999999956e+03,1.109935755847502037e-02,4.665966397189991177e-02
3.556150999999999840e+03,1.087871707404275412e-02,4.574364216986714915e-02
3.558079999999999927e+03,1.066851659801315577e-02,4.632683364963652295e-02
3.560007999999999811e+03,1.046897406764202287e-02,5.123172339521042673e-02
3.561936999999999898e+03,1.027988248860012277e-02,5.530234737089645414e-02
3.563864999999999782e+03,1.010143791229012322e-02,5.973531534759035644e-02
3.565793999999999869e+03,9.933455230225263222e-03,5.929630318481549089e-02
3.567722000000000207e+03,9.776108607979949738e-03,5.514150991016397718e-02
3.569650999999999840e+03,9.629234822902787982e-03,5.190012937400401150e-02
3.571579000000000178e+03,9.492986154711502422e-03,4.921974001530760034e-02
3.573507999999999811e+03,9.367221266618486197e-03,4.624836551191169320e-02
3.575436000000000149e+03,9.252070552495439415e-03,4.398860467241094696e-02
3.577364999999999782e+03,9.147414561386568721e-03,3.828662971234209067e-02
3.579293000000000120e+03,9.053361801317549862e-03,3.749925115733998560e-02
3.581222000000000207e+03,8.969814707192824699e-03,4.045604195913687917e-02
3.583150000000000091e+03,8.896859901188491904e-03,4.442569139770946585e-02
3.585079000000000178e+03,8.834421704047912272e-03,4.651228809075624859e-02
3.587007000000000062e+03,8.782564852104712827e-03,5.400577033439057928e-02
3.588936000000000149e+03,8.741235551944726012e-03,5.773607163495508843e-02
3.590864000000000033e+03,8.710476654066212632e-03,6.008210395848800900e-02
3.592793000000000120e+03,8.690256250890371348e-03,6.758387697462242549e-02
3.594721000000000004e+03,8.680595307069438604e-03,8.065226631225730358e-02
3.596650000000000091e+03,8.681483800877742851e-03,9.261994144929908135e-02
3.598577999999999975e+03,8.692920811121496172e-03,9.575011972258906656e-02
3.600507000000000062e+03,8.714918201910393236e-03,8.483506663585349550e-02
3.602434999999999945e+03,8.747453166215279907e-03,6.785519517099269926e-02
3.604364000000000033e+03,8.790559453991875216e-03,5.060952141126628945e-02
3.606291999999999916e+03,8.844192372357895238e-03,3.847714594766626917e-02
3.608221000000000004e+03,8.908407557115083364e-03,3.246023693899324769e-02
3.610148999999999887e+03,8.983138429538684022e-03,3.212067234575677332e-02
3.612077999999999975e+03,9.068462511283570393e-03,3.163152738055918789e-02
3.614005999999999858e+03,9.164291337771857116e-03,3.384996116399685562e-02
3.615934999999999945e+03,9.270724316497336304e-03,3.022740567440518333e-02
3.617862999999999829e+03,9.387651097046756377e-03,2.979662061022092523e-02
3.619791999999999916e+03,9.515192972756381096e-03,3.091238208031144019e-02
3.621719999999999800e+03,9.653217707366934519e-03,3.063334855160393388e-02
3.623648999999999887e+03,9.801868480057152055e-03,2.911858032212610858e-02
3.625577000000000226e+03,9.960991168732391543e-03,2.969482607578388667e-02
3.627505999999999858e+03,1.013075083840675461e-02,2.875431941328621122e-02
3.629434000000000196e+03,1.031097148113957473e-02,3.102027283302177807e-02
3.631362999999999829e+03,1.050184004780163605e-02,2.804612315850585347e-02
3.633291000000000167e+03,1.070315864459558952e-02,2.421243824209184936e-02
3.635219999999999800e+03,1.091513610824179636e-02,2.333787106854967597e-02
3.637148000000000138e+03,1.113755265909333048e-02,2.210059552649212833e-02
3.639077000000000226e+03,1.137063901972368285e-02,1.851968747375631885e-02
3.641005000000000109e+03,1.161415352463990303e-02,1.819631852630498869e-02
3.642934000000000196e+03,1.186834878225440093e-02,1.981162695816807151e-02
3.644862000000000080e+03,1.213296124122820174e-02,1.857006109779923975e-02
3.646791000000000167e+03,1.240826539582329247e-02,1.848074703721014345e-02
3.648719000000000051e+03,1.269397580886533206e-02,2.128408948983073756e-02
3.650648000000000138e+03,1.299038886044456831e-02,1.981007611479035369e-02
3.652576000000000022e+03,1.329719722754418854e-02,1.607053753440879085e-02
3.654505000000000109e+03,1.361471917610757032e-02,1.060796352883519589e-02
3.656432999999999993e+03,1.394262549726832390e-02,1.265042009052086414e-02
3.658362000000000080e+03,1.428125634281585121e-02,1.267820994647950172e-02
3.660289999999999964e+03,1.463026061803773814e-02,1.197895802140425126e-02
3.662219000000000051e+03,1.499000036056585827e-02,1.035367698705358386e-02
3.664146999999999935e+03,1.536010258985243127e-02,9.398817858949692905e-03
3.666076000000000022e+03,1.574095122936824964e-02,7.830766146553980178e-03
3.668003999999999905e+03,1.613215141271240327e-02,6.487882955022339360e-03
3.669932999999999993e+03,1.653410894920881447e-02,6.608517150053394573e-03
3.671860999999999876e+03,1.694640708661765416e-02,1.115578638351255591e-02
3.673789999999999964e+03,1.736947352009465817e-02,7.466268924057661849e-03
3.675717999999999847e+03,1.780286961156463121e-02,9.090388247527503296e-03
3.677646999999999935e+03,1.824704494202933347e-02,1.372808899105448788e-02
3.679574999999999818e+03,1.870153898756043986e-02,1.110286816901462359e-02
3.681503999999999905e+03,1.916682321500573494e-02,5.139757195385508126e-03
3.683431999999999789e+03,1.964241521459797468e-02,3.552267894671112813e-03
3.685360999999999876e+03,2.012880833903096800e-02,4.822672506010761140e-03
3.687289000000000215e+03,2.062549829268078838e-02,4.945107185940322836e-03
3.689217999999999847e+03,2.113300031409792723e-02,4.320855947905544170e-03
3.691146000000000186e+03,2.165078822181243368e-02,7.870085122976711034e-03
3.693074999999999818e+03,2.217939914021016534e-02,7.051875498423232358e-03
3.695003000000000156e+03,2.271828500198580514e-02,5.720004697801650551e-03
3.696931999999999789e+03,2.326800481736768234e-02,5.683779272392497361e-03
3.698860000000000127e+03,2.382798863320445548e-02,1.623845997342332481e-03
