baseline wavenumber (cm-1),baseline absorbance (cm-1),baseline-subtracted absorbance (cm-1)
3199.379,0.243811280704,2.02060590482e-14
3201.308,0.241796779591,0.00215146664379
3203.236,0.239793168514,0.00276773313334
3205.165,0.237798369039,0.0039569124733
3207.093,0.235814449386,0.00376252423167
3209.021,0.233840372892,0.00407128181295
3210.95,0.231875123319,0.00523495451405
3212.878,0.229920738249,0.00559174532532
3214.807,0.227975190312,0.0054999941614
3216.736,0.226039495749,0.00691865648023
3218.664,0.224114650367,0.00688807883532
3220.593,0.22219865744,0.00786451854253
3222.521,0.220293503483,0.00879271909882
3224.449,0.218398192684,0.00939469117294
3226.378,0.216511749659,0.00920542409979
3228.306,0.214636130285,0.00913623401324
3230.235,0.212769388897,0.00946906253326
3232.164,0.210912500882,0.0115963437557
3234.092,0.209066421196,0.0125999085325
3236.021,0.207229234818,0.0132261376679
3237.949,0.205402846555,0.0135145697998
3239.877,0.203586301452,0.013534895354
3241.806,0.201778664976,0.0135008255732
3243.734,0.199981811296,0.0135509896742
3245.663,0.198193876457,0.014532293562
3247.592,0.196415794991,0.0163300859351
3249.52,0.194648481,0.0160570683787
3251.448,0.192891010168,0.0172929582948
3253.377,0.191142478603,0.0165776265217
3255.305,0.189404699195,0.0162528364362
3257.234,0.187675869268,0.0169592262545
3259.162,0.185957781283,0.0189300181709
3261.091,0.184248652993,0.0199037780188
3263.02,0.182549378075,0.0204350553624
3264.948,0.180860829779,0.0203880330529
3266.876,0.179182124643,0.0219702052877
3268.805,0.177512399627,0.0225452168698
3270.733,0.175853385914,0.0231479281467
3272.662,0.174203362535,0.0220460057051
3274.591,0.172563192529,0.0222149334187
3276.519,0.170933718504,0.0237610151457
3278.448,0.169313250135,0.0256918039432
3280.376,0.167703467535,0.0254012529748
3282.304,0.166103528093,0.0255269176767
3284.233,0.164512609626,0.0264537302103
3286.161,0.162932361608,0.0285540429204
3288.09,0.161361144778,0.0282759723754
3290.019,0.159799781321,0.0287421169911
3291.947,0.158249072991,0.0292435985946
3293.875,0.156708207821,0.0302765288614
3295.804,0.155176394266,0.0309400517064
3297.732,0.153655220519,0.0314888207222
3299.661,0.152143108601,0.0314452872347
3301.589,0.150641626278,0.0328436663531
3303.518,0.149149215997,0.0333520475228
3305.447,0.147666659088,0.0335412657071
3307.375,0.146194716454,0.0324614040353
3309.303,0.144732616979,0.0327256868723
3311.232,0.143279609972,0.0334433254368
3313.16,0.141837201921,0.0348923037904
3315.089,0.140403896551,0.0359920399697
3317.017,0.138981179924,0.0372469611863
3318.946,0.137567576191,0.037409680455
3320.875,0.136163825831,0.0381316356061
3322.803,0.134770648892,0.0378539341464
3324.731,0.133387315112,0.0384281099358
3326.66,0.132013114654,0.0390760392931
3328.588,0.130649472298,0.0402309482013
3330.517,0.129294973477,0.0400682126141
3332.445,0.127951022545,0.0401415681759
3334.374,0.126616225361,0.0391039808454
3336.302,0.125291965852,0.0391884748632
3338.231,0.123976870306,0.0398844457761
3340.159,0.122672302221,0.0409080070884
3342.088,0.121376908312,0.0402671834702
3344.016,0.120092031651,0.0408995785786
3345.945,0.118816339379,0.0417709445594
3347.873,0.117551154142,0.0437219682683
3349.802,0.116295163507,0.0442623013676
3351.73,0.115049669693,0.0445096146493
3353.659,0.113813380695,0.0432587915476
3355.587,0.112587578306,0.0433605668474
3357.516,0.111370990945,0.0436648930132
3359.444,0.110164879979,0.0447982252466
3361.373,0.108967994256,0.0449120219171
3363.302,0.107780961905,0.0454435402682
3365.23,0.106604390628,0.0446672155585
3367.158,0.105437662509,0.0454948149999
3369.087,0.10428018006,0.0459654481616
3371.015,0.103133143366,0.0468612971476
3372.944,0.101995362554,0.04690335371
3374.872,0.100868017283,0.0471148999308
3376.801,0.0997499381087,0.0460036250167
3378.729,0.0986422842619,0.0458512970583
3380.658,0.0975439067244,0.0457518579577
3382.586,0.0964559443013,0.0461140546879
3384.515,0.095377268401,0.0453141295572
3386.443,0.0943089974017,0.0461852914894
3388.372,0.0932500231386,0.0462713556141
3390.3,0.0922014435631,0.0478066429627
3392.229,0.0911621709371,0.0464290551823
3394.157,0.0901332827855,0.0465679200853
3396.086,0.0891137117967,0.0466408621445
3398.014,0.0881045150688,0.0472214730036
3399.943,0.0871046457172,0.0479585302658
3401.871,0.0861151404131,0.0483840003935
3403.8,0.0851349726987,0.0480132128871
3405.728,0.0841651588184,0.048891547944
3407.657,0.0832046927412,0.0493708657345
3409.585,0.0822545702846,0.0497443178181
3411.514,0.0813138058446,0.0484395551177
3413.442,0.0803833748119,0.0474383172937
3415.371,0.079462312009,0.0472990343975
3417.299,0.0785515724001,0.0473258156521
3419.228,0.0776502112344,0.0449359608064
3421.156,0.0767591630493,0.0438483372034
3423.085,0.0758775035208,0.0448917272484
3425.013,0.0750061467594,0.0456473456089
3426.942,0.0741441888681,0.0443208874485
3428.87,0.0732925235306,0.0434526498243
3430.799,0.0724502672765,0.0412695346037
3432.727,0.0716182933627,0.0402360480909
3434.656,0.0707957387457,0.0395413682996
3436.584,0.0699834562558,0.0389016139959
3438.513,0.069180603276,0.0383024655605
3440.441,0.0683880122098,0.0375146462355
3442.37,0.0676048608673,0.0355933600971
3444.298,0.0668319612249,0.0365795418581
3446.227,0.0660685115195,0.0331688280135
3448.155,0.0653153033009,0.0329071772409
3450.084,0.0645715552327,0.0366227235503
3452.012,0.0638380384379,0.038401929216
3453.941,0.0631139920069,0.0378801452619
3455.869,0.0624001666358,0.0381744821057
3457.798,0.061695821842,0.0386251121517
3459.726,0.0610016878948,0.0382745680438
3461.655,0.0603170447381,0.0362527520879
3463.583,0.0596426022147,0.0373456723229
3465.512,0.0589776606952,0.0381339333612
3467.44,0.0583229095956,0.0386547513768
3469.369,0.0576776697133,0.0381517045918
3471.297,0.0570426100374,0.0385108115738
3473.226,0.0564170717923,0.038588993102
3475.154,0.0558017035403,0.0386367883227
3477.083,0.0551958669324,0.0393669552651
3479.011,0.0546001901041,0.0385884281108
3480.94,0.0540140551334,0.0355295615653
3482.868,0.0534380697289,0.0378325256416
3484.797,0.0528716363953,0.0412550188154
3486.725,0.0523153424146,0.0402966054273
3488.654,0.0517686107183,0.0393468244379
3490.582,0.0512320081614,0.042241154681
3492.511,0.0507049781022,0.0436010969003
3494.439,0.0501880669691,0.0443459469802
3496.368,0.0496807385471,0.0439844792837
3498.296,0.0491835188378,0.0457457240612
3500.225,0.048695892053,0.0442516466107
3502.153,0.0482183637674,0.0402002150256
3504.082,0.0477504386198,0.0401238159036
3506.01,0.0472926017581,0.0471388143948
3507.939,0.0468443782477,0.0475450890524
3509.867,0.0464062328097,0.0476941411921
3511.796,0.0459777109365,0.0516559694436
3513.724,0.0455592569223,0.0532616265307
3515.653,0.0451504366862,0.0525737117015
3517.581,0.0447516740959,0.051874728411
3519.51,0.044362555497,0.051381404879
3521.438,0.0439834843304,0.0488296158414
3523.367,0.0436140673687,0.0431270627233
3525.295,0.0432546876259,0.0436294728916
3527.224,0.0429049723014,0.042339139697
3529.152,0.0425652839824,0.0450385773337
3531.081,0.0422352702951,0.0508583312413
3533.009,0.0419152733999,0.0552605074553
3534.938,0.0416049613498,0.0539252114997
3536.866,0.0413046558783,0.0530266895174
3538.795,0.0410140454654,0.0553859343183
3540.723,0.0407334314177,0.055897014352
3542.652,0.040462522642,0.0510178169921
3544.58,0.0402016000181,0.042747960277
3546.509,0.0399503928796,0.0409199194625
3548.437,0.0397091616795,0.0490146834635
3550.366,0.0394776561781,0.0527496762792
3552.294,0.0392561164018,0.0507246780993
3554.223,0.0390443125377,0.0557686865526
3556.151,0.0388424641852,0.0627869707688
3558.08,0.0386503619582,0.0646812866823
3560.008,0.0384682050295,0.0667177850645
3561.937,0.0382958044396,0.0690775908904
3563.865,0.0381333389347,0.0658204667865
3565.794,0.0379806399821,0.0468338753318
3567.722,0.037837865901,0.0364722523645
3569.651,0.0377048685855,0.0515941307069
3571.579,0.0375817859282,0.0597233793402
3573.508,0.0374684902499,0.0574668175435
3575.436,0.0373650990164,0.0541708354827
3577.365,0.0372715049753,0.0533622764863
3579.293,0.0371878051656,0.0537113154247
3581.222,0.0371139127617,0.0551821551652
3583.15,0.0370499043757,0.0550440004054
3585.079,0.036995713609,0.048387385552
3587.007,0.0369513966468,0.03730161053
3588.936,0.0369169075173,0.0526797770071
3590.864,0.0368922819789,0.0733048270881
3592.793,0.0368774944866,0.0803594407201
3594.721,0.036872560372,0.0905801839927
3596.65,0.0368774745168,0.108487935369
3598.578,0.0368922318261,0.115166799812
3600.507,0.0369168476081,0.0995306405148
3602.435,0.0369512963411,0.0785187329726
3604.364,0.0369956137603,0.0630564432497
3606.292,0.0370497539171,0.0461671671382
3608.221,0.0371137729735,0.0321847209111
3610.149,0.0371876045541,0.0324095853782
3612.078,0.0372713252476,0.0253532577909
3614.006,0.037364848252,0.0188895740668
3615.935,0.0374682705828,0.0219004749949
3617.863,0.0375814850109,0.0142344454449
3619.792,0.0377046089789,0.0111228447763
3621.72,0.0378375148308,0.0272554802162
3623.649,0.037980340436,0.0345593340814
3625.577,0.0381329377117,0.0286617656139
3627.506,0.038295464954,0.00938066968664
3629.434,0.0384677536536,-0.00754437348576
3631.363,0.038649982533,0.0165921078339
3633.291,0.0388419626564,0.0251628892591
3635.22,0.0390438931731,0.0293868154088
3637.148,0.0392555647202,0.0324961789369
3639.077,0.039477196874,0.0317302225134
3641.005,0.039708559845,0.0324126369609
3642.934,0.039949893636,0.0310386841463
3644.862,0.0402009480307,0.026652888015
3646.791,0.0404619834589,0.000221327973383
3648.719,0.0407327292774,-0.0294419175924
3650.648,0.0410134663429,-0.0202366544557
3652.576,0.0413039035851,0.0144865543144
3654.505,0.0416043422877,0.0190668393558
3656.433,0.0419144709538,0.0107818800014
3658.362,0.0422346112936,0.0206987759499
3660.29,0.0425644313835,0.0281775073611
3662.219,0.0429042733604,0.0302019633726
3664.147,0.0432537848741,0.0321146574589
3666.076,0.0436133284883,0.0276628263687
3668.004,0.0439825314257,0.0118119697367
3669.933,0.044361776677,-0.00953968024522
3671.861,0.0447506710383,0.00255550504582
3673.79,0.0451496179268,-0.00335744164054
3675.718,0.0455582037118,-0.0298612462672
3677.647,0.0459768522375,-0.0097017081963
3679.575,0.0464051294464,0.00451521827425
3681.504,0.0468434796093,0.0167944461969
3683.432,0.0472914482419,0.0211326900377
3685.361,0.0477495000419,0.0164974422405
3687.289,0.0482171600983,0.00285784242869
3689.218,0.0486949135356,-0.0215085191153
3691.146,0.0491822650158,-0.0170843169717
3693.075,0.0496797200902,0.000982364211782
3695.003,0.0501867629942,0.00972327440595
3696.932,0.0507039197059,0.0109821209289
3698.86,0.0512306540336,0.0104553866012
