baseline wavenumber (cm-1),baseline absorbance (cm-1),baseline-subtracted absorbance (cm-1)
3199.379,0.212152582634,1.05471187339e-14
3201.308,0.210223478931,0.00139953734331
3203.236,0.208305220993,0.00145086917164
3205.165,0.206395818927,0.0018145318261
3207.093,0.204497252413,0.00217301949638
3209.021,0.202608529058,0.00163593672553
3210.95,0.200728676894,0.0023194884755
3212.878,0.198859644963,0.00370459237649
3214.807,0.196999494436,0.00351647645268
3216.736,0.195149197281,0.0028961378042
3218.664,0.193309705039,0.00299045669183
3220.593,0.191479109521,0.00459008081535
3222.521,0.189659308703,0.00611629020581
3224.449,0.187849351043,0.00781849490871
3226.378,0.186048305427,0.00761312184449
3228.306,0.184258039192,0.00716422907893
3230.235,0.182476695213,0.00801198365075
3232.164,0.180705204607,0.00929757513603
3234.092,0.17894447806,0.0093819648796
3236.021,0.177192689091,0.00984769299719
3237.949,0.175451653968,0.0100779123925
3239.877,0.173720462003,0.0104277741234
3241.806,0.171998222936,0.0108038088033
3243.734,0.170286722396,0.0113550445102
3245.663,0.168584184966,0.0119118728527
3247.592,0.166891500909,0.0132931751247
3249.52,0.165209540057,0.0141776023673
3251.448,0.163537422364,0.0156202143492
3253.377,0.161874288208,0.0152336163708
3255.305,0.160221861939,0.0148452056845
3257.234,0.158578429421,0.0150376627655
3259.162,0.156945694575,0.0157986701269
3261.091,0.155321963694,0.016478703444
3263.02,0.153708086186,0.0171992220117
3264.948,0.152104891029,0.0171039435005
3266.876,0.150511539031,0.0177991351829
3268.805,0.148927211425,0.0180683409863
3270.733,0.14735355085,0.0190473386674
3272.662,0.145788924881,0.0197940125495
3274.591,0.144234152284,0.0198291753212
3276.519,0.142690031399,0.0195446294728
3278.448,0.141154960439,0.0209614855331
3280.376,0.139630530977,0.0222143088087
3282.304,0.138115944674,0.0224776063214
3284.233,0.136610423616,0.0217876356174
3286.161,0.135115528738,0.0229866647326
3288.09,0.133629709317,0.0239961372414
3290.019,0.132153743269,0.0250049548006
3291.947,0.130688388078,0.0254155743195
3293.875,0.129232876047,0.0263432889182
3295.804,0.127786459901,0.0269559337111
3297.732,0.126350639293,0.0274608941144
3299.661,0.124923924784,0.0273797242609
3301.589,0.1235077956,0.0283365387777
3303.518,0.122100782728,0.0289791727959
3305.447,0.120703623229,0.0291847827148
3307.375,0.119317033733,0.0296513277342
3309.303,0.117940287397,0.0296841440188
3311.232,0.1165726778,0.0297711511703
3313.16,0.115215622887,0.0311758660442
3315.089,0.113867714927,0.0316309204718
3317.017,0.112530351438,0.0321018632589
3318.946,0.111202145115,0.0318527421789
3320.875,0.109883792165,0.0323027134455
3322.803,0.108575968364,0.0323019352038
3324.731,0.107277987723,0.0327630160166
3326.66,0.105989184675,0.0331536688583
3328.588,0.104710895457,0.0340455131144
3330.517,0.103441794046,0.033716216669
3332.445,0.102183196252,0.0340433528228
3334.374,0.100933796478,0.0334767362221
3336.302,0.0996948901082,0.0342411454726
3338.231,0.0984651919708,0.0351571318945
3340.159,0.097245977025,0.0358245981291
3342.088,0.0960359805249,0.0360871317767
3344.016,0.0948364570029,0.0363915729173
3345.945,0.0936461621399,0.0369288555493
3347.873,0.0924663300417,0.0373698672695
3349.802,0.091295736816,0.0383087158273
3351.73,0.0901355961415,0.0387060292502
3353.659,0.0889847045529,0.0370958574606
3355.587,0.0878442553023,0.0369235047301
3357.516,0.0867130653509,0.0372133826426
3359.444,0.085592307524,0.0393908826104
3361.373,0.0844808192098,0.0394933493942
3363.302,0.0833791842683,0.0389097321373
3365.23,0.0822879661298,0.0382525524187
3367.158,0.0812065911505,0.0392187954865
3369.087,0.0801345061107,0.040318688067
3371.015,0.0790728225552,0.0410285673165
3372.944,0.0780204391525,0.0404128924961
3374.872,0.0769784470208,0.0408918703753
3376.801,0.0759457652554,0.0413413569523
3378.729,0.0749234645474,0.0422343086255
3380.658,0.0739104844192,0.0421530150249
3382.586,0.0729078751351,0.0423856404821
3384.515,0.071914596644,0.0415796315982
3386.443,0.0709316787836,0.0418995806928
3388.372,0.0699581019297,0.0426298542009
3390.3,0.0689948754932,0.0432609468054
3392.229,0.0680410002765,0.0430017622829
3394.157,0.0670974652637,0.0441053549122
3396.086,0.0661632916842,0.0448614075981
3398.014,0.0652394480952,0.0453564631552
3399.943,0.0643249761529,0.0460101547478
3401.871,0.0634208239877,0.0465344221459
3403.8,0.0625260536825,0.046131562814
3405.728,0.0616415929412,0.0463218054213
3407.657,0.0607665242732,0.0465072551668
3409.585,0.0599017549556,0.0477566752476
3411.514,0.0590463879248,0.0476375704296
3413.442,0.058201310031,0.0468742585528
3415.371,0.0573656446374,0.0465302767211
3417.299,0.0565402581674,0.0461070176842
3419.228,0.055724294411,0.0445734767404
3421.156,0.0549185993647,0.0440363586864
3423.085,0.0541223372455,0.0447904798979
3425.013,0.0533363336231,0.0461491005223
3426.942,0.052559773141,0.0460748472977
3428.87,0.0517934609424,0.0464651360454
3430.799,0.0510366020975,0.0465233407914
3432.727,0.0502899813227,0.0462315349009
3434.656,0.049552824115,0.0453375589842
3436.584,0.0488258947639,0.0451223069949
3438.513,0.0481084391934,0.0457702416921
3440.441,0.0474012012662,0.0465402992898
3442.37,0.0467034473328,0.0457896331281
3444.298,0.0460159008294,0.0472011865051
3446.227,0.0453378485332,0.0445209182716
3448.155,0.0446699934536,0.0434449565111
3450.084,0.0440116427946,0.0467167924626
3452.012,0.0433634791387,0.0491101815304
3453.941,0.0427248301169,0.0487820828518
3455.869,0.0420963578849,0.0479062151466
3457.798,0.0414774105003,0.0480934385849
3459.726,0.040868629692,0.0488378137529
3461.655,0.0402693839446,0.0475704068166
3463.583,0.03968029456,0.0481436263942
3465.512,0.0391007504498,0.0488653366825
3467.44,0.0385313524891,0.0488161760664
3469.369,0.0379715100161,0.048379136906
3471.297,0.0374218034791,0.048594147193
3473.226,0.0368816626433,0.0485431427747
3475.154,0.0363516475302,0.0482709795799
3477.083,0.0358312083315,0.0485560604444
3479.011,0.0353208846421,0.0493364387178
3480.94,0.0348201470807,0.0483063463996
3482.868,0.0343295148151,0.0490038623202
3484.797,0.0338484788908,0.0505114321574
3486.725,0.033377538049,0.0494142541272
3488.654,0.0329162037619,0.048481476416
3490.582,0.032464954344,0.0503250032018
3492.511,0.032023321694,0.0515267945498
3494.439,0.0315917636999,0.0518829911773
3496.368,0.0311698326871,0.0509965223114
3498.296,0.0307579661167,0.0520781604374
3500.225,0.0303557367412,0.0513191242717
3502.153,0.0299635615945,0.047675743975
3504.082,0.0295810338562,0.0471364279855
3506.01,0.0292085501334,0.0514308767341
3507.939,0.0288457240322,0.0523895584908
3509.867,0.0284929317332,0.0540363617066
3511.796,0.0281498072692,0.0563161888897
3513.724,0.0278167063939,0.0564009373946
3515.653,0.0274932835671,0.0555633676004
3517.581,0.0271798741157,0.0542662746764
3519.51,0.026876152926,0.0529774860106
3521.438,0.0265824348984,0.0511453372638
3523.367,0.0262984153459,0.0482686472236
3525.295,0.0260243887421,0.0482233824092
3527.224,0.0257600708268,0.0444258181856
3529.152,0.0255057356467,0.0449075313097
3531.081,0.0252611193687,0.0506568377728
3533.009,0.0250264756124,0.0552678031706
3534.938,0.0248015609715,0.0544635911563
3536.866,0.024586608639,0.0538172324608
3538.795,0.0243813956353,0.0547406502557
3540.723,0.0241861347266,0.0538877104164
3542.652,0.0240006233601,0.049538328424
3544.58,0.0238250538752,0.0447910484194
3546.509,0.0236592441458,0.0443203828632
3548.437,0.0235033660847,0.0492170018522
3550.366,0.0233572579925,0.0499979729789
3552.294,0.0232210713552,0.0483442020704
3554.223,0.0230946649002,0.0532609805056
3556.151,0.0229781696867,0.0591706880915
3558.08,0.0228714648689,0.0638216110433
3560.008,0.0227746610792,0.0676751079494
3561.937,0.0226876578986,0.0708667334387
3563.865,0.0226105455326,0.0705869482862
3565.794,0.0225432439892,0.0592797217441
3567.722,0.022485823047,0.0500268323659
3569.651,0.0224382231408,0.0560569401059
3571.579,0.0224004936224,0.0585290120887
3573.508,0.0223725953534,0.0560315742615
3575.436,0.0223545572588,0.0533917734801
3577.365,0.0223463606269,0.0521896496834
3579.293,0.0223480139561,0.0520815625121
3581.222,0.0223595189615,0.0529535609941
3583.15,0.0223808637145,0.0533659673782
3585.079,0.022412070357,0.0507189616859
3587.007,0.0224531065338,0.0452666195352
3588.936,0.0225040148135,0.0576960357273
3590.864,0.022564742414,0.0748764023348
3592.793,0.0226353523309,0.0842530030719
3594.721,0.0227157713553,0.0980857195979
3596.65,0.0228060829093,0.11591767126
3598.578,0.0229061933575,0.123922170132
3600.507,0.0230162065487,0.108792597656
3602.435,0.0231360084207,0.082364744637
3604.364,0.0232657232491,0.0633767613359
3606.292,0.0234052165449,0.0467173701326
3608.221,0.0235546330105,0.0343161746313
3610.149,0.02371381773,0.0335203276253
3612.078,0.0238829358328,0.025660948732
3614.006,0.0240618119761,0.0191292877914
3615.935,0.0242506317161,0.0204305822736
3617.863,0.0244491992832,0.0165142091874
3619.792,0.0246577206604,0.0171542170733
3621.72,0.0248759796513,0.0289784173971
3623.649,0.0251042026657,0.0342597971322
3625.577,0.0253421530804,0.0324274769611
3627.506,0.0255900777319,0.0207594572929
3629.434,0.0258477195704,0.00992525121705
3631.363,0.0261153458591,0.0217864887714
3633.291,0.0263926791214,0.022850144087
3635.22,0.0266800070473,0.023920715686
3637.148,0.0269770317334,0.0259592060105
3639.077,0.0272840612965,0.026223615849
3641.005,0.0276007774063,0.0276026896916
3642.934,0.0279275086066,0.025425741166
3644.862,0.0282639161402,0.0219672826872
3646.791,0.0286103489777,0.00624662059675
3648.719,0.0289664479351,-0.0130564610757
3650.648,0.0293325824098,-0.00937175151925
3652.576,0.029708372791,0.0136082854522
3654.505,0.0300942089028,0.0179713475512
3656.433,0.0304896907079,0.0137067158422
3658.362,0.0308952284569,0.01876767966
3660.29,0.0313104016857,0.0228980032471
3662.219,0.0317356410719,0.0233211819343
3664.147,0.0321705057245,0.0225621132991
3666.076,0.0326154467479,0.018461152868
3668.004,0.0330700028243,0.00895425675322
3669.933,0.0335346454848,-0.00440986028318
3671.861,0.034008892985,0.00505069460217
3673.79,0.0344932372828,-0.00128970953588
3675.718,0.0349871762067,-0.0247082416065
3677.647,0.0354912221417,-0.0104217285604
3679.575,0.0360048524894,0.00232487560113
3681.504,0.0365286000616,0.0139366228233
3683.432,0.0370619218331,0.016628318741
3685.361,0.0376053710424,0.0114816804081
3687.289,0.0381583842378,0.000783898184147
3689.218,0.0387215350843,-0.0134906647719
3691.146,0.0392942397034,-0.00671327336356
3693.075,0.0398770921871,0.00559920418409
3695.003,0.04046948823,0.00816755816644
3696.932,0.0410720423509,0.00727095269613
3698.86,0.0416841298176,0.00665886522942
