baseline wavenumber (cm-1),baseline absorbance (cm-1),baseline-subtracted absorbance (cm-1)
3199.379,0.163515617103,1.42108547152e-14
3201.308,0.162058895031,0.000500995800538
3203.236,0.160609960781,0.000423092893666
3205.165,0.159167311307,0.000758899144822
3207.093,0.157732442359,0.000750828640691
3209.021,0.156304604239,0.000878252326244
3210.95,0.154883061838,0.00119143528112
3212.878,0.153469289021,0.00223727117331
3214.807,0.152061819218,0.00197133553808
3216.736,0.150661387538,0.00256564167443
3218.664,0.149268714498,0.00305060219031
3220.593,0.147882355417,0.00260687939591
3222.521,0.146503747679,0.00173541132191
3224.449,0.14513217077,0.00137394466493
3226.378,0.143766918761,0.00138419819014
3228.306,0.142409407155,0.00250012483754
3230.235,0.141058227744,0.00305377063892
3232.164,0.139714086456,0.00379900360761
3234.092,0.138377674627,0.00364193519812
3236.021,0.137047605937,0.00356545380192
3237.949,0.135725259411,0.00382543299783
3239.877,0.134409943713,0.00429975001023
3241.806,0.133100982096,0.00352238796407
3243.734,0.1317997317,0.00444559327732
3245.663,0.130504842681,0.0048969565711
3247.592,0.129216991785,0.0052341352744
3249.52,0.127936841167,0.00499048118222
3251.448,0.126663721377,0.00497076765595
3253.377,0.125396977554,0.00476677459435
3255.305,0.124137923066,0.00501147549852
3257.234,0.122885251841,0.00414042287845
3259.162,0.121640262656,0.00394348342685
3261.091,0.120401664029,0.00328629715552
3263.02,0.119170103525,0.00381988939893
3264.948,0.117946214118,0.0050624788973
3266.876,0.116729355539,0.00667305020286
3268.805,0.115518902107,0.0065876378703
3270.733,0.114316108831,0.00668662037168
3272.662,0.113119727998,0.00657399483666
3274.591,0.111930385288,0.00634010900106
3276.519,0.110748691789,0.0051342557501
3278.448,0.109573421677,0.00545639738727
3280.376,0.10840579348,0.00607110938045
3282.304,0.107245196112,0.00610110935692
3284.233,0.106091033072,0.00501581015004
3286.161,0.104944501007,0.00601324689596
3288.09,0.103804410565,0.00643313113072
3290.019,0.102671358248,0.006255155449
3291.947,0.101545925959,0.0059305725752
3293.875,0.100427524499,0.00715612050284
3295.804,0.0993155792535,0.00793196951836
3297.732,0.0982112430958,0.00760751764415
3299.661,0.0971133704486,0.00685913536362
3301.589,0.0960230995936,0.00710638590124
3303.518,0.0949392995443,0.00785408972079
3305.447,0.0938625376184,0.00936550240988
3307.375,0.0927933665408,0.00995756846374
3309.303,0.0917312262912,0.00917699164066
3311.232,0.090675571438,0.00822466104964
3313.16,0.0896274964911,0.00941879886927
3315.089,0.0885859142358,0.00866416157534
3317.017,0.0875519045917,0.008639847152
3318.946,0.0865243949344,0.00817943605721
3320.875,0.0855039234004,0.0075093182856
3322.803,0.0844910135337,0.00715712151132
3324.731,0.0834851344949,0.00840306928557
3326.66,0.0824857700336,0.00865190306858
3328.588,0.0814939562975,0.00965584659339
3330.517,0.0805086644343,0.0097132096181
3332.445,0.0795309160009,0.00987371353513
3334.374,0.0785596967356,0.00868785203625
3336.302,0.077596013605,0.00816209819126
3338.231,0.0766388669376,0.00809983719659
3340.159,0.0756892491097,0.00873964000381
3342.088,0.0747461750404,0.00939816944561
3344.016,0.0738106225152,0.0101300426016
3345.945,0.0728816210438,0.010143750431
3347.873,0.0719601338213,0.0111107243613
3349.802,0.071045204948,0.0114378638886
3351.73,0.0701377830281,0.0117433450422
3353.659,0.0692369267528,0.0114281899964
3355.587,0.0683435701357,0.0112773739662
3357.516,0.0674567864583,0.010987062728
3359.444,0.0665774951439,0.011495890078
3361.373,0.0657047840645,0.0119855019963
3363.302,0.0648391111085,0.0117175451131
3365.23,0.0639809195715,0.0102624848559
3367.158,0.0631297588625,0.0114694527013
3369.087,0.0622851929791,0.0112198105588
3371.015,0.0614480975728,0.0108727353394
3372.944,0.0606176042874,0.0105296715642
3374.872,0.0597945741838,0.011571543273
3376.801,0.0589781534964,0.0118562748873
3378.729,0.0581691886955,0.0121780265071
3380.658,0.0573668406061,0.0122025518936
3382.586,0.0565719411079,0.012230242254
3384.515,0.0557836656165,0.0118525418029
3386.443,0.055002831421,0.0127278872689
3388.372,0.0542286285276,0.0125463638913
3390.3,0.0534618596349,0.0136654020653
3392.229,0.0527017293394,0.0146302225458
3394.157,0.0519490257494,0.015717000734
3396.086,0.0512029680519,0.0159050881495
3398.014,0.0504643297646,0.0170718068977
3399.943,0.0497323446651,0.0181040042685
3401.871,0.0490077716805,0.0193491473532
3403.8,0.048289859179,0.0193529185427
3405.728,0.047579351497,0.0206107829414
3407.657,0.0468755115935,0.0213575825134
3409.585,0.0461790692143,0.021929694558
3411.514,0.0454893019088,0.0205472896205
3413.442,0.0448069248323,0.0203800760774
3415.371,0.0441312301248,0.0198382432402
3417.299,0.043462918351,0.0202760890279
3419.228,0.0428012962415,0.0214284621736
3421.156,0.0421470497704,0.0213412753079
3423.085,0.0414995002588,0.0205362826179
3425.013,0.0408593190905,0.0216126307731
3426.942,0.0402258421769,0.0224417005301
3428.87,0.0395997263112,0.0243813714346
3430.799,0.0389803219957,0.0254475563021
3432.727,0.0383682714327,0.0265690579921
3434.656,0.0377629397151,0.0275059372686
3436.584,0.0371649544549,0.0286932280984
3438.513,0.0365736953353,0.0278142557412
3440.441,0.0359897753777,0.0277487265934
3442.37,0.0354125888561,0.0283360212722
3444.298,0.0348427342013,0.0299475215351
3446.227,0.0342796202777,0.0295114441113
3448.155,0.0337238309256,0.0298104862684
3450.084,0.0331747895999,0.0315148899715
3452.012,0.0326330655505,0.0324205076831
3453.941,0.0320980968229,0.0318567197141
3455.869,0.0315704380762,0.0325001168617
3457.798,0.0310495419465,0.0324802265767
3459.726,0.0305359485025,0.0335613930521
3461.655,0.0300291249708,0.034473048283
3463.583,0.0295295968295,0.0368304557329
3465.512,0.0290368458959,0.0385184962652
3467.44,0.0285513830573,0.0401699350464
3469.369,0.0280727047216,0.0409457932062
3471.297,0.0276013071857,0.0422996328729
3473.226,0.027136701448,0.0435248774461
3475.154,0.0266793692149,0.0434697261051
3477.083,0.0262288360752,0.0433082103213
3479.011,0.0257855691447,0.0463806089611
3480.94,0.025349108603,0.04795828046
3482.868,0.0249199069752,0.0503580673501
3484.797,0.0244975190315,0.0520414479148
3486.725,0.0240823827064,0.0517788322941
3488.654,0.0236740673607,0.0497404681695
3490.582,0.0232729963383,0.0492681944026
3492.511,0.0228787535906,0.0485222370088
3494.439,0.022491747871,0.0490492407068
3496.368,0.0221115777212,0.0488097808151
3498.296,0.0217386373043,0.0491377399322
3500.225,0.0213725397525,0.0501704704567
3502.153,0.0210136646383,0.0521542318542
3504.082,0.0206616396845,0.0509763872032
3506.01,0.020316829873,0.0527924393072
3507.939,0.0199788775172,0.0575057075429
3509.867,0.0196481330084,0.0631058344433
3511.796,0.0193242532506,0.0644875328608
3513.724,0.0190075740445,0.0646359112481
3515.653,0.0186977668847,0.0658413011432
3517.581,0.0183951529813,0.0687134086279
3519.51,0.0180994184195,0.0720501823083
3521.438,0.0178108698188,0.0780927994423
3523.367,0.017529207855,0.0813179568069
3525.295,0.017254724557,0.082492571511
3527.224,0.0169871351911,0.0798444629085
3529.152,0.0167267171959,0.0775732929123
3531.081,0.016473200428,0.0751870644057
3533.009,0.0162268477354,0.0725237840244
3534.938,0.0159874035656,0.0697813217958
3536.866,0.0157551161757,0.0663023992392
3538.795,0.0155297446038,0.0649119818694
3540.723,0.0153115225167,0.0663543018035
3542.652,0.0151002235428,0.0660677740312
3544.58,0.0148960667584,0.063729729259
3546.509,0.0146988403825,0.0575638706253
3548.437,0.0145087489007,0.0551071411225
3550.366,0.0143255951228,0.0572714937279
3552.294,0.0141495689438,0.0601918846092
3554.223,0.0139804877639,0.0648767850553
3556.151,0.0138185268876,0.074006703073
3558.08,0.0136635183056,0.084228425493
3560.008,0.013515622732,0.0968907251908
3561.937,0.0133746867481,0.109788661074
3563.865,0.0132408564772,0.11946459182
3565.794,0.0131139930912,0.121324498772
3567.722,0.012994228123,0.119077438712
3569.651,0.0128814373351,0.126502975886
3571.579,0.0127757376696,0.135229417491
3573.508,0.0126770194796,0.132483700221
3575.436,0.0125853851168,0.115117030733
3577.365,0.0125007395248,0.0919114711292
3579.293,0.0124231704648,0.0744362250674
3581.222,0.0123525974708,0.0642535887215
3583.15,0.0122890937134,0.0607974321129
3585.079,0.0122325933174,0.0606613721127
3587.007,0.0121831548627,0.0601432375359
3588.936,0.0121407270647,0.0590343462194
3590.864,0.0121053539128,0.0688387479775
3592.793,0.0120769987127,0.0836037856803
3594.721,0.0120556908635,0.102620848103
3596.65,0.0120414082615,0.119705786725
3598.578,0.0120341657149,0.125855756452
3600.507,0.0120339557109,0.107391395548
3602.435,0.012040778467,0.076054339293
3604.364,0.012054641061,0.0543018736464
3606.292,0.0120755291199,0.0437715344604
3608.221,0.0121034643118,0.0348585290168
3610.149,0.0121384176734,0.0293459652236
3612.078,0.0121804254633,0.0264175731216
3614.006,0.0122294441276,0.0244293044825
3615.935,0.0122855245155,0.0260799864519
3617.863,0.0123486084825,0.0257202280686
3619.792,0.0124187614684,0.0203084193665
3621.72,0.0124959107381,0.0197425406922
3623.649,0.012580136322,0.0215283242057
3625.577,0.0126713508944,0.0234552032348
3627.506,0.0127696490763,0.0224441384503
3629.434,0.0128749289514,0.0088490172732
3631.363,0.0129872997313,0.0108098295521
3633.291,0.0131066449091,0.0169444012852
3635.22,0.0132330882869,0.0153740076395
3637.148,0.0133664987675,0.0177150740618
3639.077,0.0135070147433,0.0191827659097
3641.005,0.0136544905266,0.0193653214617
3642.934,0.0138090791004,0.0176146548529
3644.862,0.0139706201864,0.0203905442734
3646.791,0.0141392813582,0.0205372576088
3648.719,0.0143148877468,0.0123580122835
3650.648,0.0144976215166,0.00231578189991
3652.576,0.014687293208,0.00504231358467
3654.505,0.0148840995758,0.0104525020617
3656.433,0.0150878365699,0.00802446505752
3658.362,0.0152987155357,0.00577679239922
3660.29,0.0155165178325,0.00803548863676
3662.219,0.0157414693962,0.00927723069474
3664.147,0.0159733369957,0.0114369531084
3666.076,0.0162123611575,0.0136061974193
3668.004,0.0164582940597,0.0146980791335
3669.933,0.0167113908194,0.00816175180665
3671.861,0.0169713890244,0.00529081657556
3673.79,0.0172385583821,0.00898756109632
3675.718,0.0175126218897,-0.00171761531941
3677.647,0.0177938638454,-0.00186441878328
3679.575,0.0180819926558,0.00241431786682
3681.504,0.0183773072095,0.00319855451092
3683.432,0.0186795013225,0.00571805250342
3685.361,0.0189888884742,0.00524642942732
3687.289,0.01930514789,0.00533853956581
3689.218,0.0196286076397,0.000179842779823
3691.146,0.0199589323581,0.000234638853856
3693.075,0.0202964647058,-0.00111775248504
3695.003,0.020640854727,0.00189123867242
3696.932,0.0209924596726,0.00130360825419
3698.86,0.0213509149965,0.000945152930327
