baseline wavenumber (cm-1),baseline absorbance (cm-1),baseline-subtracted absorbance (cm-1)
3199.379,0.193034974224,1.57651669497e-14
3201.308,0.191098381809,0.00124367823366
3203.236,0.189172639041,0.00160012958305
3205.165,0.187255748263,0.00113098983461
3207.093,0.185349696919,0.00122768102474
3209.021,0.183453488735,0.00231270958734
3210.95,0.181566147858,0.00280360853514
3212.878,0.179689631097,0.00229965425578
3214.807,0.177821991858,0.0024959096883
3216.736,0.175964205992,0.00458517235673
3218.664,0.174117228919,0.00454950513518
3220.593,0.17227914469,0.00416278394667
3222.521,0.170451859041,0.00315169903023
3224.449,0.168634416552,0.00280094178244
3226.378,0.166825882224,0.00359663875039
3228.306,0.165028131158,0.00542521969571
3230.235,0.163239298468,0.00540469223258
3232.164,0.16146031915,0.00550167417861
3234.092,0.159692107773,0.00685140784433
3236.021,0.157932830092,0.00823162962695
3237.949,0.156184310139,0.00706344079641
3239.877,0.154445633344,0.00683709181484
3241.806,0.152715905565,0.00701066878009
3243.734,0.150996920195,0.00828641145368
3245.663,0.149286894053,0.00827249137085
3247.592,0.147586721284,0.00735920007452
3249.52,0.145897275602,0.00857507858789
3251.448,0.144217673079,0.0101652239188
3253.377,0.142547050212,0.0102872770905
3255.305,0.140887139113,0.0114261126816
3257.234,0.139236217882,0.0120500451319
3259.162,0.137595998207,0.011681773955
3261.091,0.135964778614,0.0110427014223
3263.02,0.134343412394,0.0124891965218
3264.948,0.132732732407,0.0138390860508
3266.876,0.131131895579,0.014656540689
3268.805,0.12954007926,0.0146047706335
3270.733,0.127958933856,0.0156340106498
3272.662,0.126386819175,0.0161366822907
3274.591,0.124824557866,0.015982578493
3276.519,0.123272952151,0.0146917703805
3278.448,0.121730392479,0.0165380801786
3280.376,0.120198478187,0.0182170681588
3282.304,0.118676407055,0.0185473875477
3284.233,0.117163397285,0.0173716274803
3286.161,0.115661017576,0.0186592088468
3288.09,0.114167709443,0.0206250733326
3290.019,0.112684254683,0.0207954784616
3291.947,0.111211414663,0.0204387420138
3293.875,0.109748417801,0.0222585568271
3295.804,0.108294512943,0.0235027174218
3297.732,0.106851207506,0.0249328822547
3299.661,0.105417004285,0.023498390439
3301.589,0.103993390271,0.0226870908773
3303.518,0.102578888687,0.0234005917538
3305.447,0.101174240476,0.0254986595548
3307.375,0.0997801661503,0.0253760048797
3309.303,0.0983959349843,0.0253036505812
3311.232,0.0970208366747,0.0253651938519
3313.16,0.0956562969325,0.0250866526278
3315.089,0.09430090026,0.0251547754703
3317.017,0.0929560519416,0.0265552186538
3318.946,0.0916203569063,0.0262387353811
3320.875,0.0902945152437,0.0268170788127
3322.803,0.0889792066136,0.0287555553393
3324.731,0.0876737411428,0.0298472332836
3326.66,0.0863774493819,0.0291966939518
3328.588,0.0850916753348,0.029511074084
3330.517,0.0838150852111,0.0293022704949
3332.445,0.0825490025879,0.0289166802182
3334.374,0.0812921141013,0.0309357237638
3336.302,0.0800457229019,0.0325460086255
3338.231,0.0788085360525,0.0318884213921
3340.159,0.0775818362768,0.0323499336615
3342.088,0.0763643510647,0.0324641135062
3344.016,0.0751573427128,0.0332566874095
3345.945,0.0739595591378,0.0336907997018
3347.873,0.0727722422097,0.0334184987182
3349.802,0.0715941602719,0.0329903944637
3351.73,0.0704265347676,0.0336035875411
3353.659,0.069268154467,0.0323860454723
3355.587,0.0681202203865,0.0316503244432
3357.516,0.0669815417231,0.0324665528893
3359.444,0.0658532990664,0.034048651808
3361.373,0.0647343220401,0.0349649602807
3363.302,0.0636251983865,0.0366795625556
3365.23,0.0625264954181,0.0365647812421
3367.158,0.061437635609,0.036129330933
3369.087,0.0603580618571,0.0358124627562
3371.015,0.0592888934718,0.0363494366606
3372.944,0.0582290213571,0.0365127152243
3374.872,0.0571795443955,0.0369845109972
3376.801,0.056139373918,0.0364629711744
3378.729,0.0551095883803,0.0368392643439
3380.658,0.05408911954,0.0359432265633
3382.586,0.053079025426,0.0364802589165
3384.515,0.0520782582228,0.0371050026687
3386.443,0.0510878555327,0.0379751182872
3388.372,0.0501067899667,0.0387171259334
3390.3,0.0491360787003,0.038600704884
3392.229,0.0481747147716,0.0376849840054
3394.157,0.0472236949289,0.0389230755148
3396.086,0.0462820326374,0.0402053827068
3398.014,0.0453507042186,0.0405726759492
3399.943,0.0444287435642,0.0398778368462
3401.871,0.0435171065691,0.0410659319429
3403.8,0.0426148475519,0.041481483187
3405.728,0.0417229019807,0.0423744395739
3407.657,0.0408403446007,0.043479881822
3409.585,0.0399680904532,0.0443117033404
3411.514,0.0391052347104,0.0438655527151
3413.442,0.0382526719867,0.0433833332695
3415.371,0.0374095178811,0.0422104154051
3417.299,0.0365766465812,0.0419935545711
3419.228,0.0357531941128,0.0432551956578
3421.156,0.0349400142367,0.0441613705809
3423.085,0.0341362634054,0.0429450061792
3425.013,0.0333427749531,0.0445350174253
3426.942,0.032558725759,0.0455833949324
3428.87,0.0317849287305,0.0464173354967
3430.799,0.0310205811736,0.0471498423582
3432.727,0.0302664755689,0.0467036042855
3434.656,0.0295218296492,0.0472304194158
3436.584,0.0287874154683,0.0485930555719
3438.513,0.0280624711857,0.0477183839644
3440.441,0.0273477484286,0.0469077857875
3442.37,0.0266425057833,0.04565204592
3444.298,0.0259474744499,0.0463844774352
3446.227,0.0252619334418,0.0453283829436
3448.155,0.0245865935322,0.0453765116937
3450.084,0.0239207541612,0.0471416131692
3452.012,0.0232651056755,0.0477446992371
3453.941,0.0226189679417,0.0470272465534
3455.869,0.0219830108797,0.0472164230635
3457.798,0.0213565747831,0.0482795315547
3459.726,0.0207403091449,0.0494436593176
3461.655,0.0201335746855,0.048685287136
3463.583,0.0195370004711,0.0482336454401
3465.512,0.0189499676489,0.0483637895532
3467.44,0.0183730848583,0.0492130871826
3469.369,0.0178057536732,0.0494797006885
3471.297,0.0172485623064,0.0498832480646
3473.226,0.0167009327585,0.0481661449732
3475.154,0.0161634328155,0.0479718143289
3477.083,0.0156355049048,0.0505077276839
3479.011,0.0151176963856,0.0520550520223
3480.94,0.0146094701121,0.0506144255717
3482.868,0.0141113530167,0.050893701062
3484.797,0.0136228283804,0.0523960738738
3486.725,0.0131444027087,0.0524888733451
3488.654,0.0126755797096,0.0519681077462
3490.582,0.0122168454617,0.0519118313805
3492.511,0.0117677240998,0.0517362686223
3494.439,0.0113286812757,0.0501814774223
3496.368,0.010899261551,0.049052724702
3498.296,0.0104799101507,0.0526692862508
3500.225,0.0100701920631,0.0514894966057
3502.153,0.00967053208663,0.0500530098117
3504.082,0.00928051563623,0.0510222236744
3506.01,0.00890054708355,0.0538200634492
3507.939,0.00853023227033,0.0534246853482
3509.867,0.00816995514144,0.053584315555
3511.796,0.00781934196541,0.0557639997914
3513.724,0.0074787562603,0.0543523364315
3515.653,0.00714784472146,0.0520460297352
3517.581,0.00682695044015,0.0511104800663
3519.51,0.00651574053849,0.0490685109525
3521.438,0.00621453768096,0.0489825713861
3523.367,0.00592302941649,0.0479059405623
3525.295,0.00564151798276,0.0489374772664
3527.224,0.00536971135546,0.0491279132276
3529.152,0.00510789134552,0.0513951916424
3531.081,0.00485578635542,0.0526358744148
3533.009,0.00461365776927,0.0521522373081
3534.938,0.00438125441634,0.0518438542463
3536.866,0.00415881725399,0.0522148813208
3538.795,0.00394611553825,0.0524432506803
3540.723,0.00374336979968,0.0519333713304
3542.652,0.00355036972113,0.0507193159152
3544.58,0.00336731540635,0.0501786261685
3546.509,0.00319401696498,0.0473973102361
3548.437,0.00303065407399,0.0488408712469
3550.366,0.00287705726981,0.049809690936
3552.294,0.00273338580261,0.0494403734211
3554.223,0.00259949063561,0.053380495213
3556.151,0.00247551059221,0.0580784164269
3558.08,0.00236131706239,0.0611138674115
3560.008,0.00225702844278,0.0634176910559
3561.937,0.00216253655014,0.0646286289204
3563.865,0.00207793935432,0.0648026833082
3565.794,0.00200314909888,0.0600513338689
3567.722,0.00193824332684,0.0521525279256
3569.651,0.00188315470858,0.0531537400655
3571.579,0.00183794036034,0.054942611545
3573.508,0.00180255337926,0.053404663845
3575.436,0.00177703045481,0.0524026925817
3577.365,0.00176134511092,0.0504381899138
3579.293,0.00175551361026,0.0492229560147
3581.222,0.00175952990355,0.0498699050505
3583.15,0.00177338982668,0.0510568942125
3585.079,0.00179710775716,0.0521132328877
3587.007,0.00183065910408,0.0534356908403
3588.936,0.00187407867174,0.0571317840595
3590.864,0.00192732144245,0.0664134245396
3592.793,0.00199044264729,0.0746041191641
3594.721,0.0020633768418,0.0886750240477
3596.65,0.00214619968383,0.103185347875
3598.578,0.00223882530212,0.107009127796
3600.507,0.00234134978134,0.0933682428599
3602.435,0.00245366682342,0.0724432299723
3604.364,0.00257589293982,0.0574994128319
3606.292,0.00270790140569,0.0478788771246
3608.221,0.00284982915928,0.0408214535659
3610.149,0.00300152904894,0.0408653465196
3612.078,0.00316315843971,0.040178598358
3614.006,0.00333454975316,0.0343618012021
3615.935,0.00351588078112,0.030575901287
3617.863,0.00370696351836,0.0284551713245
3619.792,0.0039079961835,0.0261157579861
3621.72,0.00411877034454,0.0289136768403
3623.649,0.00433950464686,0.0289138057746
3625.577,0.00456997023169,0.0281845026279
3627.506,0.0048104061712,0.0259623624531
3629.434,0.00506056317981,0.0200607347076
3631.363,0.00532070075651,0.0243795923801
3633.291,0.00559054918891,0.0269900633654
3635.22,0.00587038840279,0.0278332404257
3637.148,0.00615992825899,0.0284963943934
3639.077,0.00645946911006,0.0285819743348
3641.005,0.00676870039004,0.0309822346145
3642.934,0.00708794287829,0.0293398343379
3644.862,0.00741686558207,0.0264500099865
3646.791,0.0077558097075,0.018704313612
3648.719,0.00810442383507,0.00981834984329
3650.648,0.00846306959768,0.0102668404397
3652.576,0.00883137514905,0.0214349747954
3654.505,0.00920972254885,0.0241067638557
3656.433,0.009597719524,0.0213989447841
3658.362,0.00999576856098,0.0218696918656
3660.29,0.0104034569599,0.0217980996963
3662.219,0.0108212076341,0.0215218632241
3664.147,0.0112485874568,0.022111364024
3666.076,0.0116860397682,0.0188966954992
3668.004,0.0121331110147,0.0139105562248
3669.933,0.0125902649633,0.00767355794183
3671.861,0.0130570276336,0.0120253538483
3673.79,0.0135338832193,0.011424167928
3675.718,0.0140203373134,0.00142290538347
3677.647,0.0145168945363,0.00575602571034
3679.575,0.0150230400542,0.0100451900075
3681.504,0.0155392989143,0.012134308687
3683.432,0.016065135856,0.0138630962273
3685.361,0.0166010963533,0.0097710859979
3687.289,0.0171466247187,0.00381365022315
3689.218,0.0177022868532,-0.00166367369237
3691.146,0.0182675066425,0.000726226300026
3693.075,0.0188428704141,0.00198296603591
3695.003,0.0194277816272,0.00399281879738
3696.932,0.020022847036,0.00457232126482
3698.86,0.0206274496728,0.00396771862797
