baseline wavenumber (cm-1),baseline absorbance (cm-1),baseline-subtracted absorbance (cm-1)
3199.379,0.137646257077,2.84217094304e-14
3201.308,0.135898489334,-0.00483362598044
3203.236,0.134161473352,-0.00214952116041
3205.165,0.132433407246,-0.00234254263422
3207.093,0.130716082687,-0.00622282763736
3209.021,0.129008601288,-0.00500496670348
3210.95,0.127310085084,-0.00467990405375
3212.878,0.125622295108,0.0026187756961
3214.807,0.123943480542,0.0131198451031
3216.736,0.122274519348,0.0122033586143
3218.664,0.12061626906,-0.00201942835293
3220.593,0.118967009503,-0.0110464111948
3222.521,0.11732845064,-0.00587112205945
3224.449,0.115699734936,-0.00138017108577
3226.378,0.11408002528,0.00948151802004
3228.306,0.112471001,0.00717218065933
3230.235,0.110870992982,-0.00487602548356
3232.164,0.109280838337,-0.00542747984074
3234.092,0.107701353745,0.00044745453116
3236.021,0.106130900736,0.00401343420465
3237.949,0.104571107568,0.00124702341682
3239.877,0.103021157559,0.00640814278356
3241.806,0.101480254452,0.0105159711713
3243.734,0.0999499958672,0.0117194666337
3245.663,0.0984287943979,0.00420662882148
3247.592,0.0969174463013,0.00284316039477
3249.52,0.0954167274043,0.00855265821109
3251.448,0.0939258516667,0.00501417768961
3253.377,0.0924440534717,0.0109609231131
3255.305,0.0909728691578,0.00953632214711
3257.234,0.0895107726001,0.00550180865381
3259.162,0.08805927971,0.00420988922828
3261.091,0.0866168847895,0.00393389454932
3263.02,0.0851843432415,0.0137644230966
3264.948,0.0837623900398,0.0209989156148
3266.876,0.0823502799973,0.0135146812105
3268.805,0.0809472883511,0.0112041060712
3270.733,0.0795548697323,0.0187830068316
3272.662,0.0781715797234,0.0200320967986
3274.591,0.076798143087,0.0170045409138
3276.519,0.0754352641566,0.0159567117992
3278.448,0.0740815291574,0.010090554438
3280.376,0.0727383416508,0.0179927689943
3282.304,0.0714049973035,0.0186117777018
3284.233,0.070080812206,0.0103864415858
3286.161,0.0687671592825,0.0151323304778
3288.09,0.0674626758222,0.0098914165801
3290.019,0.0661680457346,0.00799110712765
3291.947,0.0648839324994,0.0107437322801
3293.875,0.0636096624234,0.00613906197728
3295.804,0.0623445822375,0.00987251428868
3297.732,0.0610900035853,0.014295472056
3299.661,0.0598446250366,0.0168402145524
3301.589,0.0586097378082,0.0187052129152
3303.518,0.0573840608967,0.0253659915252
3305.447,0.0561682373578,0.0326498237312
3307.375,0.0549628898177,0.0336524732912
3309.303,0.0537673854369,0.0320717143045
3311.232,0.0525811117998,0.0274499918558
3313.16,0.0514052988427,0.0159966722204
3315.089,0.0502387268428,0.0229663475963
3317.017,0.0490826053095,0.0329723328327
3318.946,0.0479357349467,0.0306247599159
3320.875,0.0467987179566,0.0270626785626
3322.803,0.0456721361117,0.0231350911197
3324.731,0.044555397426,0.0167306863092
3326.66,0.0434479303376,0.0196271378108
3328.588,0.0423508830757,0.0219187052377
3330.517,0.0412631176245,0.0234894510482
3332.445,0.0401857617864,0.0249176840792
3334.374,0.0391176979724,0.0272575029782
3336.302,0.0380600335581,0.0258010134818
3338.231,0.0370116713813,0.0300729724994
3340.159,0.0359736983907,0.0389403297074
3342.088,0.0349450378511,0.03011716946
3344.016,0.0339267562844,0.0283895923562
3345.945,0.0329177973819,0.0387258036526
3347.873,0.031919207239,0.0373140352298
3349.802,0.0309299499737,0.0395792413313
3351.73,0.0299510512545,0.0417631445937
3353.659,0.0289814956264,0.042854668489
3355.587,0.0280222883311,0.054933257905
3357.516,0.0270724343402,0.0609372811837
3359.444,0.0261329184686,0.0556518721933
3361.373,0.0252027661149,0.0510137712445
3363.302,0.0242824671337,0.0588153171677
3365.23,0.0233724909505,0.0488963285085
3367.158,0.0224723579266,0.0330197088939
3369.087,0.0215816088472,0.0373122892446
3371.015,0.020701167247,0.0334366673794
3372.944,0.0198301198048,0.0361921070771
3374.872,0.0189693696284,0.038811786449
3376.801,0.0181180238234,0.0350206495532
3378.729,0.0172769650708,0.0375133473636
3380.658,0.016445320903,0.0435071499155
3382.586,0.0156239535742,0.0462108126242
3384.515,0.0148120110436,0.0506468552456
3386.443,0.0140103351386,0.0490685772819
3388.372,0.0132180942451,0.0433856661519
3390.3,0.0124361097639,0.0325642397154
3392.229,0.0116635705076,0.0344708392219
3394.157,0.0109012774502,0.0479450914601
3396.086,0.0101484398311,0.0492679297782
3398.014,0.00940583819745,0.0446519656748
3399.943,0.00867270221557,0.0411441706439
3401.871,0.0079497920057,0.0385599584661
3403.8,0.007236357661,0.0452725540605
3405.728,0.00653313887493,0.0552044720847
3407.657,0.00583940616741,0.063464431115
3409.585,0.00515587880513,0.0745879528857
3411.514,0.00448184773479,0.0726167753169
3413.442,0.00381801179631,0.0605141333075
3415.371,0.00316368236316,0.0531936951444
3417.299,0.00251953784845,0.0568765619628
3419.228,0.00188491005249,0.0551287895351
3421.156,0.00126045696158,0.0545695563186
3423.085,0.000645530802803,0.0515806521845
3425.013,4.07691356799e-05,0.0610751181922
3426.942,-0.000554455385913,0.071355112407
3428.87,-0.00113952562924,0.0670988462415
3430.799,-0.00171504851365,0.0705313622063
3432.727,-0.00228042733319,0.075177261051
3434.656,-0.00283624858042,0.0697513950122
3436.584,-0.00338193597616,0.0722929585525
3438.513,-0.0039180555862,0.0737698763732
3440.441,-0.00444405155816,0.0669043856603
3442.37,-0.00496046953101,0.0606098020256
3444.298,-0.00546677407918,0.0652417094255
3446.227,-0.00596349041485,0.0686349099997
3448.155,-0.00645010353923,0.061106565411
3450.084,-0.00692711823772,0.0536804557648
3452.012,-0.0073940399383,0.0594038952539
3453.941,-0.0078513529996,0.0595396873814
3455.869,-0.0082985832764,0.0604356490484
3457.798,-0.00873619470051,0.075201211825
3459.726,-0.00916373355352,0.0890005267317
3461.655,-0.00958164334045,0.0855706696912
3463.583,-0.00998949076967,0.0842122488601
3465.512,-0.0103876989194,0.0898166497826
3467.44,-0.0107758549248,0.0910550888663
3469.369,-0.0111543614374,0.0920815299563
3471.297,-0.011522826019,0.0983362739816
3473.226,-0.0118816308944,0.0967289084508
3475.154,-0.0122304040523,0.0993077088681
3477.083,-0.0125695072904,0.0962051401974
3479.011,-0.0128985890245,0.0961854416141
3480.94,-0.0132179906255,0.104181504989
3482.868,-0.0135273809358,0.107458323831
3484.797,-0.0138270808996,0.112106244945
3486.725,-0.0141167797861,0.126135022604
3488.654,-0.0143967781127,0.126098043228
3490.582,-0.0146667855754,0.117899119398
3492.511,-0.0149270822648,0.110206316206
3494.439,-0.0151773983037,0.10921388394
3496.368,-0.015417993356,0.117542128395
3498.296,-0.0156486179711,0.114562785861
3500.225,-0.0158695113862,0.114247578067
3502.153,-0.0160804445775,0.114143280951
3504.082,-0.0162816363554,0.112158479859
3506.01,-0.0164728781229,0.118604701706
3507.939,-0.0166543682636,0.121612081271
3509.867,-0.0168259186073,0.130581073427
3511.796,-0.0169877071109,0.147580074483
3513.724,-0.0171395660308,0.160982090669
3515.653,-0.0172816528972,0.168951464877
3517.581,-0.0174138203933,0.177971938797
3519.51,-0.0175362056225,0.191341335978
3521.438,-0.0176486816948,0.208950491997
3523.367,-0.0177513652868,0.214299558479
3525.295,-0.0178441499354,0.220644177894
3527.224,-0.0179271318901,0.214501186549
3529.152,-0.0180002251149,0.201961922186
3531.081,-0.0180635054325,0.193531458183
3533.009,-0.0181169072335,0.178853260068
3534.938,-0.0181604859139,0.165062352133
3536.866,-0.0181941962911,0.168256054123
3538.795,-0.0182180733344,0.173912139176
3540.723,-0.0182320922878,0.171317994294
3542.652,-0.0182362676938,0.16629805563
3544.58,-0.0182305952234,0.15212204696
3546.509,-0.0182150689923,0.144043684355
3548.437,-0.0181897050981,0.137935983144
3550.366,-0.0181544772298,0.125168875776
3552.294,-0.0181094219118,0.117636226972
3554.223,-0.0180544924063,0.136774699298
3556.151,-0.0179897456646,0.161900768241
3558.08,-0.0179151145219,0.184135845633
3560.008,-0.0178306763563,0.224960053584
3561.937,-0.0177363435765,0.260344157933
3563.865,-0.0176322139871,0.276230802091
3565.794,-0.0175181795701,0.288179743839
3567.722,-0.0173943585569,0.310566931423
3569.651,-0.0172606225027,0.343724940669
3571.579,-0.0171171100658,0.370070209947
3573.508,-0.0169636723743,0.370759716269
3575.436,-0.0168004685136,0.327638170338
3577.365,-0.016627329185,0.255718683068
3579.293,-0.0164444339005,0.194870029763
3581.222,-0.0162515929347,0.149453172581
3583.15,-0.0160490062264,0.113723920604
3585.079,-0.0158364636235,0.0937780306885
3587.007,-0.0156141854914,0.0871403614891
3588.936,-0.0153819412512,0.0854689615909
3590.864,-0.0151399716953,0.0942914360135
3592.793,-0.014888025818,0.124400851707
3594.721,-0.0146263648383,0.149468749685
3596.65,-0.0143547173238,0.153654710334
3598.578,-0.0140733649203,0.159170869638
3600.507,-0.0137820157686,0.146515642665
3602.435,-0.0134809719414,0.119443787346
3604.364,-0.0131699211525,0.0891229511378
3606.292,-0.0128491859014,0.0647328791984
3608.221,-0.0125184334753,0.0514993519069
3610.149,-0.0121780068005,0.0484815644995
3612.078,-0.0118275527372,0.0494745087727
3614.006,-0.0114674346386,0.0515548044576
3615.935,-0.0110972789382,0.0490168288089
3617.863,-0.0107174694158,0.0485524453017
3619.792,-0.0103276120781,0.0548624551619
3621.72,-0.00992811113191,0.0459496390553
3623.649,-0.00951855215709,0.0386182935424
3625.577,-0.00909935978709,0.0350436527905
3627.506,-0.00867009917508,0.0310430634583
3629.434,-0.0082312153813,0.0331756481764
3631.363,-0.00778225313211,0.0342612494276
3633.291,-0.00732367791453,0.0298867589238
3635.22,-0.00685501402815,0.0245536929965
3637.148,-0.00637674738679,0.0240111221684
3639.077,-0.00588838186323,0.025658773979
3641.005,-0.00539042379808,0.0338869639532
3642.934,-0.00488235663733,0.0377466887824
3644.862,-0.00436470714838,0.0370794621634
3646.791,-0.00383693835045,0.0299877736059
3648.719,-0.00329959743771,0.0177669910213
3650.648,-0.00275212700259,0.0245596338174
3652.576,-0.00219509466607,0.0255154972662
3654.505,-0.00162792259377,0.0252813789438
3656.433,-0.00105119883345,0.0244516321878
3658.362,-0.000464325123964,0.0166378765324
3660.29,0.000132090060141,0.0147847338722
3662.219,0.000738665406814,0.0207682892308
3664.147,0.00135477201471,0.0164277819798
3666.076,0.00198104899857,0.00581828000122
3668.004,0.00261684703025,0.00620995104062
3669.933,0.0032628256513,0.0172837599362
3671.861,0.00391831510677,0.0233756668601
3673.79,0.004583995365,0.0291673151823
3675.718,0.00525917624427,0.0449099717253
3677.647,0.00594455813968,0.0261372899067
3679.575,0.00663943044274,0.0178520772109
3681.504,0.00734451397534,0.0173542348889
3683.432,0.00805907770219,0.00635799086565
3685.361,0.00878386287197,0.00450229075912
3687.289,0.00951811802261,0.00774685716436
3689.218,0.0102626048296,0.00838805568625
3691.146,0.011016551404,0.00626380087111
3693.075,0.0117807398482,-0.000481026421162
3695.003,0.0125543778464,0.000346300143418
3696.932,0.0133382679277,-0.00145003140014
3698.86,0.0141315973497,-0.00224336082215
