baseline wavenumber (cm-1),baseline absorbance (cm-1),baseline-subtracted absorbance (cm-1)
3199.3790000000004,0.13764625707694123,1.4210854715202004e-14
3201.308,0.136262969257114,-0.0051981059035104415
3203.236,0.13488743118963598,-0.0028754789984004603
3205.165,0.13351821596779523,-0.0034273513560660884
3207.093,0.13215674320302462,-0.007663488153048625
3209.0209999999997,0.13080230126625914,-0.0067986666817896335
3210.95,0.12945419311710893,-0.006824012086843467
3212.8779999999997,0.12811381648305087,0.00012725432145055393
3214.8070000000002,0.12677978093189246,0.010283544712897497
3216.736,0.12545278350402,0.009025094457817184
3218.664,0.12413350664737166,-0.0055366659400251095
3220.593,0.12282058181748745,-0.014899983508966486
3222.5209999999997,0.1215153702635483,-0.010058041683132402
3224.449,0.12021718953761251,-0.00589762568774832
3226.3779999999997,0.11892537178041884,0.004636171520064014
3228.3059999999996,0.11764125635719225,0.002001925302136165
3230.235,0.11636351119798682,-0.010368543699558863
3232.164,0.11509280416207268,-0.011239445666231251
3234.092,0.11382978851625403,-0.005680980240584166
3236.0209999999997,0.11257315407832635,-0.0024288191373877943
3237.949,0.11132420373521512,-0.005506072750382174
3239.877,0.1100822842201108,-0.0006529838776208052
3241.8059999999996,0.10884675685487544,0.003149468768945507
3243.7340000000004,0.10761890264247853,0.0040505598583955305
3245.663,0.10639744787522964,-0.0037620246558263126
3247.592,0.10518303123127026,-0.0054224245352463285
3249.52,0.1039762767962813,-6.891180847734546e-06
3251.448,0.10277655318930101,-0.0038365238330411167
3253.377,0.10158324361803217,0.0018217329668566151
3255.305,0.10039758531375753,0.00011160599119897086
3257.2340000000004,0.09921834834047694,-0.004205767086544743
3259.1620000000003,0.09804675533890972,-0.00577758640062731
3261.091,0.09688159096361915,-0.006330811624833288
3263.02,0.0957234647116163,0.0032253016265406664
3264.948,0.09457297148745702,0.010188334167118729
3266.8759999999997,0.09342950909130465,0.0024354521164964282
3268.805,0.09229248991199412,-0.00014109548968299634
3270.7329999999997,0.09116309281854917,0.007174783745371283
3272.6620000000003,0.09004014623722512,0.008163530284757137
3274.591,0.08892423777918879,0.0048784462216504565
3276.5190000000002,0.08781594046315355,0.0035760354926726023
3278.448,0.08671410460310724,-0.002542021007664097
3280.3759999999997,0.08561987258977943,0.005111238055360179
3282.304,0.08453267140445675,0.005484103600785772
3284.2329999999997,0.08345194261710098,-0.00298468882525027
3286.1609999999996,0.08237880673448572,0.0015206830257721293
3288.09,0.08131215054511998,-0.003958058142798926
3290.0190000000002,0.08025253247903841,-0.006093379616802785
3291.947,0.07920049637383464,-0.00357283159435573
3293.875,0.078155491096636,-0.008406766695992385
3295.804,0.07711698010324497,-0.004899883577068387
3297.732,0.07608604012875553,-0.0007005644874604755
3299.6609999999996,0.07506160173335452,0.0016232378556582105
3301.5890000000004,0.07404472706157073,0.003270223661851368
3303.518,0.07303436126415974,0.009715691157731854
3305.447,0.07203103359003649,0.016787027498940787
3307.375,0.0710352586956624,0.01758010441330571
3309.303,0.07004651462929345,0.01579258511209236
3311.232,0.06906429402785896,0.010966809627694474
3313.16,0.06808961526419921,-0.0006876442010828043
3315.0890000000004,0.06712146726075296,0.006083607178333228
3317.0170000000003,0.06616085379980241,0.015894084342366277
3318.946,0.06520677839434619,0.01335371646830863
3320.875,0.06425974111217769,0.009601655407009524
3322.803,0.0633202274286333,0.005486999802791992
3324.7309999999998,0.062387744573095816,-0.0011016608378611181
3326.66,0.06146181436361964,0.0016132537848401185
3328.5879999999997,0.060543396810789574,0.0037261915026234327
3330.5170000000003,0.059631539199299866,0.005121029473378336
3332.445,0.058727186949177224,0.006376258916483746
3334.3740000000003,0.057829401935679314,0.00854579901490471
3336.302,0.056939114988264095,0.0069219320516471505
3338.2309999999998,0.05605540257275443,0.011029241307863646
3340.159,0.05517918092804486,0.019734847170089775
3342.0879999999997,0.05430954111052522,0.010752666200581906
3344.0159999999996,0.05344738476852484,0.008868963872001423
3345.945,0.05259181754899345,0.019051783485465545
3347.873,0.051743726509700494,0.017489515959021595
3349.802,0.050902231888157345,0.019606959416798464
3351.73,0.050068206151571815,0.021645989696615242
3353.659,0.049240784128020465,0.022595379987448094
3355.587,0.048420823694142356,0.0345347225419661
3357.5159999999996,0.04760747426857748,0.040402241255292015
3359.4440000000004,0.04680157913740679,0.03498321152450723
3361.373,0.04600230230983193,0.030214235049502935
3363.302,0.045210063605544804,0.03788772069584612
3365.23,0.044425268251783834,0.02784355120722326
3367.158,0.04364750372602799,0.011844563094410177
3369.087,0.04287637209442963,0.016017525997413795
3371.015,0.04211267287138298,0.012025161755023994
3372.9440000000004,0.04135561383777642,0.014666613044170163
3374.8720000000003,0.04060597991743542,0.017175176160009187
3376.801,0.0398629934818171,0.013275679894852122
3378.7290000000003,0.039127424864183524,0.015662887570289552
3380.658,0.03839851102655345,0.021553959791927646
3382.586,0.03767700771163085,0.02415775848673407
3384.515,0.03696216647198902,0.028496699817240678
3386.4429999999998,0.03625472845977207,0.026824183960721726
3388.3720000000003,0.035553959818118486,0.021049800578890387
3390.3,0.034860587108608954,0.010139762370667604
3392.2290000000003,0.03417389106494717,0.011960518664556385
3394.157,0.03349458365814506,0.02535178525217896
3396.086,0.032821960212471524,0.026594409396811347
3398.014,0.032156718108376836,0.021901085763853967
3399.9429999999998,0.03149816726069332,0.018318705598746376
3401.8709999999996,0.030846990459306056,0.01566276001249145
3403.8,0.030202512209610788,0.02230639951192437
3405.728,0.029565400710930945,0.0321722102487394
3407.657,0.028934995059223922,0.04036884222322579
3409.585,0.028311948863253278,0.051431882827527975
3411.514,0.027695615809536278,0.04940300724211699
3413.442,0.02708663491627128,0.037245510187524644
3415.3709999999996,0.026484374460542526,0.029873003046971824
3417.2990000000004,0.025889458869986726,0.03350664094129474
3419.228,0.025301271012247994,0.031712428575366935
3421.156,0.024720420724399617,0.03110959255581358
3423.085,0.024146305464647355,0.028079877522702024
3425.013,0.0235795204795064,0.03753636684837591
3426.942,0.02301947781774416,0.04778117920329494
3428.87,0.022466758135312404,0.043492562476975305
3430.7990000000004,0.021920788071540187,0.04689552562105792
3432.7270000000003,0.021382133691814076,0.05151470002594705
3434.656,0.020850236226030106,0.046064910205786624
3436.5840000000003,0.020325647149011417,0.0485853754273502
3438.513,0.01980782228121747,0.05004399850581054
3440.441,0.019297298506906202,0.04316303559528212
3442.37,0.018793546237102277,0.03685578625748098
3444.298,0.018297087765498432,0.041477847580835725
3446.2270000000003,0.017807408093680976,0.04486401149113828
3448.155,0.01732501492478633,0.03733144694702517
3450.0840000000003,0.016849407850958897,0.029903929676126317
3452.012,0.016381079984771674,0.03562877533080844
3453.941,0.015919545508932487,0.03576878887283863
3455.869,0.015465282945452685,0.03667178282654726
3457.798,0.01501782106760352,0.05144719605688142
3459.7259999999997,0.014577623806831141,0.06525916937133402
3461.655,0.014144234526970223,0.061844791823767675
3463.583,0.013718102568905266,0.060504655521540496
3465.512,0.013298785887036146,0.0661301649761783
3467.44,0.012886719231676835,0.06739251470975072
3469.369,0.012481475147795962,0.06844569337111128
3471.297,0.012083473795144073,0.07472997416739258
3473.2259999999997,0.011692302309251446,0.07315497524718984
3475.1540000000005,0.011308366259310532,0.07576893855651434
3477.083,0.01093126737140615,0.07270436553556303
3479.011,0.010561396624170882,0.07272545596547086
3480.94,0.010198370334256524,0.0807651440293422
3482.868,0.009842564889728678,0.08408837800535807
3484.797,0.009493611197804341,0.08878555284776812
3486.725,0.009151871055983918,0.10286637176221713
3488.6540000000005,0.008816989962047828,0.10288427515293153
3490.5820000000003,0.008489315122934826,0.09474301869967006
3492.511,0.008168506626986982,0.08711072731444114
3494.4390000000003,0.00785489709058318,0.08618158854581903
3496.368,0.007548161192625358,0.09457597384616712
3498.296,0.007248616958927201,0.09166555093091766
3500.225,0.006955953658957625,0.09142211302168857
3502.153,0.006670474727966891,0.09139236164583675
3504.0820000000003,0.006391884025989114,0.08948495947719204
3506.01,0.006120470397705802,0.09601135318515608
3507.9390000000003,0.005855952293714495,0.09910176071390442
3509.867,0.005598603968140381,0.10815655085117948
3511.796,0.0053481584621390965,0.12524420891047638
3513.724,0.005104875439272405,0.13873764919901688
3515.653,0.00486850253125759,0.1468013094488927
3517.5809999999997,0.004639284811098321,0.1559188335924806
3519.51,0.004416984501075305,0.16938814585469486
3521.438,0.004201832083621682,0.18709997821902769
3523.367,0.003993604371588688,0.19255458882055554
3525.295,0.0037925172568442633,0.19900751070149836
3527.224,0.0035983621427977397,0.19297569251576152
3529.152,0.003411340330760737,0.1805503567406035
3531.0809999999997,0.0032312578147060123,0.17223669493569638
3533.009,0.003058301305376432,0.1576780515289009
3534.938,0.002892291387308177,0.14400957483202537
3536.866,0.0027334001806860186,0.14732845765114533
3538.795,0.002581462860607786,0.15311260298128815
3540.723,0.0024366369566948265,0.15064926504931675
3542.652,0.00229877223460484,0.14576301570137096
3544.58,0.0021680116333993027,0.13172344010351322
3546.509,0.0020442195092975624,0.12378439585381207
3548.437,0.0019275242107994472,0.11781875383491291
3550.366,0.0018178046846877294,0.10519659386147895
3552.2940000000003,0.0017151746888970365,0.09781163037156304
3554.223,0.0016195277607735648,0.1171006791309579
3556.151,0.0015309630676902941,0.1423800595086715
3558.08,0.0014493887375568448,0.16477134237308877
3560.008,0.0013748893471809964,0.2057544878807498
3561.937,0.0013073876150375696,0.24130042674157193
3563.865,0.0012469535273691434,0.2573516345763567
3565.7940000000003,0.0011935243932121864,0.26946803987602697
3567.722,0.0011471556082511825,0.29202541725817843
3569.651,0.0011077990720860242,0.32535651909384744
3571.579,0.0010754955898324425,0.35187760429134496
3573.508,0.0010502116516555304,0.352745832242942
3575.4359999999997,0.001031973472109371,0.3098057283521729
3577.365,0.0010207621319224813,0.23807059175079237
3579.2929999999997,0.001016589255083744,0.17740900660708236
3581.222,0.0010194505128851006,0.1321821291334424
3583.15,0.0010293429387537856,0.09664557143882435
3585.079,0.0010462767945433882,0.07689529027053021
3587.007,0.0010702345231230481,0.07045594147464085
3588.9359999999997,0.0011012409769008968,0.06898577936279349
3590.864,0.0011392640081862027,0.0780122003099799
3592.7929999999997,0.0011843430599540739,0.10832848282947127
3594.7209999999995,0.0012364313939450255,0.13360595345263393
3596.65,0.0012955830437046956,0.13800440996671015
3598.578,0.0013617366804030695,0.1437357680375675
3600.507,0.0014349609281492093,0.13129866596777617
3602.435,0.0015151798675567818,0.10444763553749015
3604.364,0.0016024767132911677,0.07435055327203122
3606.292,0.0016967609554079388,0.050186932341580004
3608.2209999999995,0.0017981303991323472,0.0371827880324056
3610.1490000000003,0.0019064799439529878,0.0343970777550755
3612.078,0.0020219219856674187,0.0356250340498403
3614.006,0.002144336833197258,0.03794303298577262
3615.935,0.002273851472899935,0.035645698397793524
3617.863,0.0024103316231371963,0.03542464426279324
3619.792,0.0025539188608298957,0.04198092422297561
3621.72,0.0027044643137745794,0.03331706360962006
3623.6490000000003,0.0028621241494537486,0.026237617235882915
3625.577,0.0030267349051094072,0.022917558098316082
3627.506,0.003198467338778599,0.0191744969444394
3629.434,0.003377143397138127,0.021567289397997236
3631.363,0.003562948428797341,0.022916047866722966
3633.2909999999997,0.0037556897898642916,0.0188073912194322
3635.22,0.003955567419513528,0.013743111548823794
3637.1479999999997,0.004162374083287901,0.0134720006982878
3639.077,0.0043763243109253835,0.015394067804822331
3641.005,0.004597196277407178,0.023899343877761936
3642.934,0.004825219103034684,0.02803911304206963
3644.862,0.005060156372225677,0.027654598642802508
3646.7909999999997,0.005302251795839652,0.020848583459630365
3648.719,0.005551254367738068,0.008916139215823016
3650.6479999999997,0.005807422389342065,0.01600008442550438
3652.5759999999996,0.006070490263949679,0.017249912336176454
3654.505,0.006340730883541923,0.017312725466497092
3656.433,0.006617864060855183,0.016782569293447125
3658.362,0.006902177278437449,0.009271374129964371
3660.29,0.0071933757584581315,0.007723448173883707
3662.219,0.00749176157403042,0.014015193063559916
3664.147,0.007797025356758525,0.009985528637789898
3666.0759999999996,0.00810948377031906,-0.0003101547705282037
3668.0040000000004,0.008428812855754586,0.0003979852151205776
3669.933,0.008755343867303367,0.011791241720171985
3671.861,0.009088738255448092,0.018205243711421737
3673.79,0.009429341864986895,0.024321968682297967
3675.718,0.009776801555837267,0.04039234641368816
3677.647,0.010131477763364316,0.02195037028304725
3679.575,0.01049300275692211,0.013998504896674646
3681.5040000000004,0.010861751562440958,0.013836997301751808
3683.4320000000002,0.011237341858706174,0.00317972670912825
3685.361,0.011620163262211491,0.0016659903688784894
3687.289,0.012009818861185906,0.005255156325786103
3689.218,0.012406712862681246,0.006243947653150617
3691.1459999999997,0.012810433764363083,0.004469918510747295
3693.075,0.01322140036384667,-0.0019216869368525735
3695.0029999999997,0.013639186568235928,-0.0007385085784403778
3696.9320000000002,0.01406422576570776,-0.0021759892381334467
3698.86,0.014496077272804442,-0.0026078407452301278
