baseline wavenumber (cm-1),baseline absorbance (cm-1),baseline-subtracted absorbance (cm-1)
3199.379,0.238605984029,1.89293025699e-14
3201.308,0.236583824002,0.000783910759793
3203.236,0.234572557982,0.00216326532782
3205.165,0.232570099592,0.00104179770928
3207.093,0.230578524995,0.00265512506053
3209.021,0.228596793557,0.00798351575212
3210.95,0.22662388507,0.0114354498137
3212.878,0.224661845056,0.0109990262674
3214.807,0.222708638205,0.00963766726359
3216.736,0.220765284727,0.00870767595254
3218.664,0.218832784401,0.0110540547779
3220.593,0.21690913256,0.0144997424018
3222.521,0.214996323659,0.013848516127
3224.449,0.213093357916,0.012484424354
3226.378,0.211199255977,0.0103179278903
3228.306,0.209315981658,0.00665834362208
3230.235,0.207441581356,0.00703668610548
3232.164,0.205577034427,0.00934644682247
3234.092,0.203723299797,0.0135016067029
3236.021,0.201878454504,0.016789947396
3237.949,0.200044411298,0.0174585706085
3239.877,0.198220211251,0.014246735075
3241.806,0.19640491586,0.0109880387542
3243.734,0.194600407237,0.0105079016686
3245.663,0.192804813483,0.0137916183371
3247.592,0.191019073103,0.0133365824113
3249.52,0.189244104168,0.0108267034742
3251.448,0.187478978392,0.0133549445841
3253.377,0.185722787913,0.0155859152107
3255.305,0.183977353561,0.0146091722657
3257.234,0.182240864719,0.0152681820819
3259.162,0.180515121791,0.0146073890756
3261.091,0.178798334586,0.0142165244052
3263.02,0.177091400754,0.0146652959001
3264.948,0.175395197514,0.0154506530873
3266.876,0.173708837433,0.0153711180907
3268.805,0.172031453503,0.0176007106533
3270.733,0.170364784846,0.0181657417887
3272.662,0.168707102553,0.0172149130133
3274.591,0.167059273633,0.0189072683666
3276.519,0.165422144664,0.019796899104
3278.448,0.163794017381,0.0172932160163
3280.376,0.162176579836,0.0174788330819
3282.304,0.160568985451,0.0207321870955
3284.233,0.158970408069,0.0234329579471
3286.161,0.157382505108,0.0240707446651
3288.09,0.155803629363,0.0240204381593
3290.019,0.154234606992,0.0249786751271
3291.947,0.152676243718,0.025909372374
3293.875,0.151127723604,0.0291345830775
3295.804,0.149588251134,0.0290838907845
3297.732,0.148059422444,0.0234875299469
3299.661,0.146539651611,0.0208433970093
3301.589,0.145030514344,0.0249083313041
3303.518,0.143530445149,0.0317998894312
3305.447,0.142040229326,0.0264121107126
3307.375,0.140560631748,0.0207892621168
3309.303,0.139090877329,0.026021373758
3311.232,0.137630211407,0.0310118587432
3313.16,0.136180148412,0.0313143426421
3315.089,0.134739184128,0.0274830437097
3317.017,0.133308812557,0.0267420314744
3318.946,0.13188754991,0.0289658818095
3320.875,0.130476140636,0.0293814859689
3322.803,0.129075308753,0.0283366997382
3324.731,0.127684320029,0.0274747823668
3326.66,0.126302460656,0.0287757259402
3328.588,0.124931163356,0.0316913980508
3330.517,0.123569005621,0.0328994063874
3332.445,0.122217399745,0.0336668618543
3334.374,0.120874943647,0.0381538140608
3336.302,0.119543029194,0.0421690399456
3338.231,0.118220274733,0.034765220061
3340.159,0.116908051705,0.0279265788422
3342.088,0.115604998881,0.0313929794876
3344.016,0.114312467276,0.0353507289233
3345.945,0.11302911609,0.0370235979507
3347.873,0.111756275908,0.036940024506
3349.802,0.110492626359,0.0383980033791
3351.73,0.109239477602,0.0388773726964
3353.659,0.10799552969,0.0389384135026
3355.587,0.106762072356,0.0418827775378
3357.516,0.105537826081,0.0449919929829
3359.444,0.104324060171,0.0453876046421
3361.373,0.103119515534,0.0467169344816
3363.302,0.101924824268,0.0502537868708
3365.23,0.100740598047,0.0499536301952
3367.158,0.0995662149849,0.0460969812144
3369.087,0.0984010736215,0.0425066389025
3371.015,0.0972463819831,0.0431708322087
3372.944,0.0961009422569,0.0474618293998
3374.872,0.0949659420423,0.0466296811256
3376.801,0.0938402039533,0.0477230225705
3378.729,0.0927248951625,0.0541568393973
3380.658,0.0916188587106,0.0518158931341
3382.586,0.0905232413436,0.0485144115423
3384.515,0.089436906529,0.0480167475699
3386.443,0.0883609805858,0.0536498351425
3388.372,0.0872943474083,0.0547736804903
3390.3,0.0862381128889,0.045907444576
3392.229,0.0851911813485,0.0414880362801
3394.157,0.0841546382529,0.0453836211224
3396.086,0.0831274083498,0.0508432274533
3398.014,0.082110556678,0.0582591997154
3399.943,0.081103028412,0.0673218174386
3401.871,0.080105868164,0.0711432473722
3403.8,0.0791180415352,0.0698165081463
3405.728,0.078140572711,0.0726631268746
3407.657,0.0771724477194,0.0730866748925
3409.585,0.076214670319,0.0670410155195
3411.514,0.0752662469646,0.0701621872818
3413.442,0.0743281609879,0.0686532905435
3415.371,0.0733994392707,0.0662753813095
3417.299,0.0724810447179,0.0683049655925
3419.228,0.0715720246378,0.068658491889
3421.156,0.0706733215087,0.0725069574764
3423.085,0.0697840030659,0.0726500412078
3425.013,0.0689049913606,0.07341124234
3426.942,0.068035374555,0.0811293378679
3428.87,0.0671760542735,0.0861124830762
3430.799,0.066326139105,0.0851673916743
3432.727,0.0654865102473,0.0827042812214
3434.656,0.064656296716,0.0816919293024
3436.584,0.0638363592821,0.0901573736604
3438.513,0.063025847388,0.0961835430901
3440.441,0.0622256013779,0.094242001978
3442.37,0.061434791121,0.0979800981947
3444.298,0.0606542365346,0.0972736923039
3446.227,0.0598831279149,0.0960091191284
3448.155,0.0591222647524,0.102677341029
3450.084,0.0583708577698,0.10495366462
3452.012,0.0576296860311,0.101680280612
3453.941,0.0568979806857,0.101563507235
3455.869,0.0561765003707,0.105937620725
3457.798,0.0554644966626,0.10788463909
3459.726,0.0547627077714,0.106632672801
3461.655,0.0540704057004,0.108259221309
3463.583,0.053388308233,0.110241025639
3465.512,0.0527157077992,0.106902456559
3467.44,0.0520533017556,0.108834093372
3469.369,0.051400402959,0.113601669213
3471.297,0.0507576883392,0.110270462879
3473.226,0.0501244911798,0.10605932566
3475.154,0.0495014679838,0.110527845672
3477.083,0.0488879724615,0.109456867324
3479.011,0.0482846406893,0.113046704706
3480.94,0.0476908468043,0.120884357886
3482.868,0.0471072064558,0.122596068587
3484.797,0.0465331142079,0.11640118277
3486.725,0.0459691652833,0.116050495083
3488.654,0.0454147746726,0.12153913213
3490.582,0.0448705171717,0.120982864007
3492.511,0.0443358281982,0.110267123384
3494.439,0.0438112621212,0.104299927609
3496.368,0.0432962747849,0.106781861271
3498.296,0.0427914001316,0.112468733296
3500.225,0.0422961144325,0.104662138878
3502.153,0.041810931203,0.100104716225
3504.082,0.041335347141,0.104462540254
3506.01,0.0408698553353,0.106104823731
3507.939,0.0404139729106,0.105152184979
3509.867,0.0399681725287,0.109911237155
3511.796,0.0395319917411,0.113424896968
3513.724,0.039105882783,0.11325871845
3515.653,0.0386894036326,0.113842386522
3517.581,0.0382829860982,0.118854029974
3519.51,0.037886208585,0.120657408114
3521.438,0.0374994824745,0.122095534204
3523.367,0.0371224065985,0.130602651523
3525.295,0.0367553719117,0.133029273797
3527.224,0.0363979976729,0.125759083091
3529.152,0.03605065441,0.118780033956
3531.081,0.0357129818083,0.116321992416
3533.009,0.0353853299691,0.114672640313
3534.938,0.0350673590047,0.109646984471
3536.866,0.0347593985893,0.105619556227
3538.795,0.034461129262,0.104788693845
3540.723,0.0341728602704,0.102669907343
3542.652,0.0338942925803,0.10056972238
3544.58,0.0336257150125,0.0989110281392
3546.509,0.0333668489596,0.0948160581464
3548.437,0.0331179628156,0.0929055386501
3550.366,0.0328787983999,0.0945533253239
3552.294,0.0326496036797,0.10027135053
3554.223,0.0324301409011,0.102565310428
3556.151,0.0322206376047,0.107286791891
3558.08,0.0320208764634,0.117444907424
3560.008,0.0318310645907,0.13129427656
3561.937,0.0316510050866,0.146233458676
3563.865,0.0314808846377,0.156794916434
3565.794,0.0313205267707,0.161887145321
3567.722,0.0311700977457,0.176772235217
3569.651,0.0310294415159,0.183959237348
3571.579,0.0308987039146,0.18495376753
3573.508,0.030777749322,0.180470557562
3575.436,0.0306667031445,0.160328546022
3577.365,0.0305654501891,0.131173152864
3579.293,0.0304740954354,0.105259958946
3581.222,0.0303925441172,0.0918539432982
3583.15,0.0303208807873,0.0867421435734
3585.079,0.0302590311062,0.0763020221638
3587.007,0.0302070592001,0.0777333532127
3588.936,0.0301649111562,0.0911534957982
3590.864,0.0301326306739,0.0992451617045
3592.793,0.0301101842672,0.110285297386
3594.721,0.0300975952087,0.126796976711
3596.65,0.0300948504392,0.145406109836
3598.578,0.0301019528045,0.150654238442
3600.507,0.0301189096722,0.125975399435
3602.435,0.0301457034612,0.0889612913836
3604.364,0.0301823619661,0.0632186791741
3606.292,0.030228847179,0.0545192070008
3608.221,0.030285207321,0.0572839324748
3610.149,0.0303513839576,0.047540559841
3612.078,0.0304274457369,0.0375039198752
3614.006,0.0305133137973,0.0437740611142
3615.935,0.0306090772137,0.0444546041772
3617.863,0.0307146366979,0.0425624278932
3619.792,0.0308301017515,0.0471042963077
3621.72,0.0309553526596,0.0479180932113
3623.649,0.0310905193503,0.0457835330099
3625.577,0.0312354616822,0.0420410975011
3627.506,0.0313903300101,0.0318922940675
3629.434,0.0315549637657,0.035071944149
3631.363,0.0317295337309,0.0338390501163
3633.291,0.0319138589103,0.0300299397352
3635.22,0.0321081305126,0.0344773339572
3637.148,0.0323121471158,0.0329355027376
3639.077,0.0325261203553,0.0275512070479
3641.005,0.0327498283823,0.0261645555255
3642.934,0.032983503259,0.025383523932
3644.862,0.0332269027097,0.0168772113103
3646.791,0.0334802792236,0.00828915370875
3648.719,0.0337433700982,0.0122876619447
3650.648,0.0340164482493,0.023415574393
3652.576,0.0342992305476,0.0193776116641
3654.505,0.0345920103359,0.00657244938313
3656.433,0.034894484058,0.0121428150424
3658.362,0.0352069654834,0.0165569079624
3660.29,0.0355291306294,0.0109840605159
3662.219,0.035861313692,0.00922965972355
3664.147,0.0362031702617,0.00631275008601
3666.076,0.0365550549615,0.00297845357987
3668.004,0.036916602955,0.00110421984897
3669.933,0.037288189292,0.0108281555983
3671.861,0.0376694287093,0.0209199779418
3673.79,0.0380607166835,0.00928437580613
3675.718,0.0384616475246,0.0219441949903
3677.647,0.038872637136,0.0148183564959
3679.575,0.0392932594008,0.0058457277618
3681.504,0.0397239506494,0.00535489297741
3683.432,0.0401642643381,0.00209187636749
3685.361,0.0406146572238,0.000813119992415
3687.289,0.0410746623363,-0.00511135494719
3689.218,0.0415447568592,0.00128502177218
3691.146,0.0420244533954,0.0066387428039
3693.075,0.0425142495555,0.00423092379936
3695.003,0.0430136375156,-0.00076861578304
3696.932,0.0435231353129,0.00350658266954
3698.86,0.0440422146967,0.00298750328571
