baseline wavenumber (cm-1),baseline absorbance (cm-1),baseline-subtracted absorbance (cm-1)
3199.3790000000004,0.21536131608206688,1.1379786002407855e-14
3201.308,0.2133695585618618,0.0003876940409887064
3203.236,0.21138867928725702,0.0020475382402877496
3205.165,0.20941662340423406,0.00395020162356341
3207.093,0.20745543555342394,0.0038563505579680135
3209.0209999999997,0.20550409086181887,0.004986104225616739
3210.95,0.20356158488056764,0.005964190920503876
3212.8779999999997,0.2016299316127501,0.007080621303453272
3214.8070000000002,0.199707127268681,0.007027887388147136
3216.736,0.19779417629721507,0.007358659040902826
3218.664,0.19589206271777115,0.007578421462962781
3220.593,0.1939988133834909,0.00830807027161884
3222.5209999999997,0.19211639122784163,0.00907470348559214
3224.449,0.1902438122313974,0.011130998240653556
3226.3779999999997,0.18838011279888178,0.011551101190807933
3228.3059999999996,0.18652722522623222,0.012042521059019984
3230.235,0.1846832274308987,0.01262092702174461
3232.164,0.18284908300817193,0.01385555663602095
3234.092,0.18102573512389242,0.014780895827285201
3236.0209999999997,0.17921129233834776,0.015731596573003714
3237.949,0.17740763587785935,0.015159431745712881
3239.877,0.17561382257657954,0.015556196628919328
3241.8059999999996,0.17382892969280306,0.01589911033549979
3243.7340000000004,0.17205480781531435,0.016931899957858598
3245.663,0.17028961656872,0.017638767136930522
3247.592,0.16853427869473236,0.018971937821996687
3249.52,0.1667896965056137,0.01891201177296714
3251.448,0.1650549574757072,0.019357758586154794
3253.377,0.1633291695034842,0.01950844294976556
3255.305,0.1616141218973688,0.020802384723474288
3257.2340000000004,0.1599080355623279,0.021789477830980508
3259.1620000000003,0.1582126793800036,0.022465173647389536
3261.091,0.15652629468215196,0.02202025338213598
3263.02,0.15484976335689993,0.0224053159921348
3264.948,0.15318394686294567,0.022407380338105576
3266.8759999999997,0.15152797352820002,0.023328844423887385
3268.805,0.14988099210471617,0.023971782584458035
3270.7329999999997,0.14824471019376162,0.025405800268181178
3272.6620000000003,0.14661743040746344,0.02522897614262254
3274.591,0.1450000039937649,0.025424235367399628
3276.5190000000002,0.14339326177118394,0.025764223319284074
3278.448,0.14179553699467107,0.02640642398784182
3280.3759999999997,0.14020848619587767,0.0265177849049007
3282.304,0.13863127855629642,0.02723205915723842
3284.2329999999997,0.13706310368154817,0.02746620997457233
3286.1609999999996,0.13550558746575803,0.028108735793111905
3288.09,0.13395711422819545,0.028169237737841135
3290.0190000000002,0.13241849436323605,0.028948229582988594
3291.947,0.1308905178358195,0.029182564141336076
3293.875,0.12937238446760801,0.029450722779940763
3295.804,0.1278633145044168,0.029680605438977548
3297.732,0.1263648725599964,0.030383484864445143
3299.6609999999996,0.12487550423399085,0.03087083155899406
3301.5890000000004,0.12339675371335801,0.03192377595408369
3303.518,0.12192708702453814,0.03233441100437123
3305.447,0.12046727370831789,0.03322291127096044
3307.375,0.1190180628760622,0.033782553721532105
3309.303,0.11757869520301156,0.03466142407324441
3311.232,0.11614843178855949,0.03423461683167711
3313.16,0.1147287555393035,0.03515894283328325
3315.0890000000004,0.11331819376203356,0.035192975751764055
3317.0170000000003,0.11191820893656512,0.03559437571925217
3318.946,0.11052734879648085,0.036405431957587775
3320.875,0.10914634202899975,0.03770067101052321
3322.803,0.10777589689190847,0.03700596907392595
3324.7309999999998,0.10641529491402224,0.03731764757056283
3326.66,0.10506383804830577,0.0377118619415861
3328.5879999999997,0.10372292749421064,0.038557523329604215
3330.5170000000003,0.10239117226567984,0.03843451256197611
3332.445,0.10106995313537581,0.039098701468889885
3334.3740000000003,0.09975789954403069,0.03963111288900284
3336.302,0.09845637183751776,0.04068256478433607
3338.2309999999998,0.09716401988335477,0.04068698587829489
3340.159,0.09588218360063294,0.04139169692094802
3342.0879999999997,0.09460953328365918,0.041238187326873565
3344.0159999999996,0.09334738842472845,0.04199371134278401
3345.945,0.09209443974493325,0.04284324346541746
3347.873,0.09085198630979008,0.044607783224223874
3349.802,0.08961873926718766,0.04504536666630066
3351.73,0.08839597725583204,0.04593597462933935
3353.659,0.0871824318504153,0.04685956754309528
3355.587,0.08597936126285433,0.04776242585935331
3357.5159999999996,0.08478551749461616,0.04775476351215635
3359.4440000000004,0.08360213833084273,0.04839952951510895
3361.373,0.0824279961997938,0.04784699621908828
3363.302,0.08126370744134448,0.04738533733779238
3365.23,0.08010986796594466,0.04650020986686643
3367.158,0.07896587164975699,0.046525789120484606
3369.087,0.0778311327930723,0.046494804738515694
3371.015,0.07670682790067573,0.047129318869768067
3372.9440000000004,0.07559179068117672,0.046757597775307636
3374.8720000000003,0.0744871772125677,0.047357864736285116
3376.801,0.07339184163025436,0.04709612966257898
3378.7290000000003,0.07230691958543645,0.047941134594286616
3380.658,0.07123128564030878,0.04815909139395791
3382.586,0.07016605501928197,0.048802559152354597
3384.515,0.06911012271133998,0.049434201558345714
3386.4429999999998,0.06806458351410072,0.05033494140250705
3388.3720000000003,0.06702835284334085,0.05045148138287969
3390.3,0.06600250506989624,0.051720228175833105
3392.2290000000003,0.06498597603632206,0.05212758911075166
3394.157,0.063979819686665,0.052824284225191864
3396.086,0.06298299229028004,0.05319005936240373
3398.014,0.061996527364410525,0.054416542482956354
3399.9429999999998,0.06101940160520769,0.05624032749617719
3401.8709999999996,0.060052628103136385,0.058007515432697054
3403.8,0.059095203981115674,0.058484650461419485
3405.728,0.05814812190283192,0.05975398059388293
3407.657,0.05721039941799688,0.06044920838550055
3409.585,0.05628300876350423,0.06071188661706789
3411.514,0.055364987915851316,0.060204151879963974
3413.442,0.05445728868514976,0.06072678085897237
3415.3709999999996,0.05355896947468253,0.06032473617577738
3417.2990000000004,0.052670961667772076,0.060677112728265536
3419.228,0.051792344094486964,0.06137989890561413
3421.156,0.050924027711367614,0.06198530211780451
3423.085,0.05006511177527173,0.06190547348703501
3425.013,0.04921648681593993,0.06347546709086288
3426.942,0.04837727251702617,0.0652929488516183
3428.87,0.047548338981489024,0.06729639972264517
3430.7990000000004,0.04672882631976094,0.06858255546533965
3432.7270000000003,0.045919584208011344,0.07039907545033297
3434.656,0.045119773183468936,0.07123760071726898
3436.5840000000003,0.04433022249551044,0.07308138166905032
3438.513,0.04355011310815371,0.07329452451440766
3440.441,0.042780253843986316,0.07362311217238893
3442.37,0.04201984609381171,0.07453787148427382
3444.298,0.041269678253435416,0.07612534853318143
3446.2270000000003,0.040528972140446484,0.07688733231725092
3448.155,0.03979849572385774,0.07658359262143694
3450.0840000000003,0.039077491248054486,0.07590704327130265
3452.012,0.0383667062552604,0.07665052815290702
3453.941,0.037665403416639265,0.07767751581918408
3455.869,0.036974309847632725,0.07890833444631251
3457.798,0.03629270864619727,0.07880291452169924
3459.7259999999997,0.03562130650098183,0.07947386179983695
3461.655,0.03495940693673205,0.08099161904123214
3463.583,0.034307696215307715,0.08353532410208847
3465.512,0.03366549828824361,0.08504535787267825
3467.44,0.033033478990610377,0.08690031257918651
3469.369,0.0324109827007284,0.08796251371087582
3471.297,0.03179865482688626,0.09021943877465016
3473.2259999999997,0.03119586017418996,0.09204218692982302
3475.1540000000005,0.030603223724138928,0.09442962778703062
3477.083,0.0300201307086283,0.09616707236425154
3479.011,0.029447185682361265,0.09912948469062982
3480.94,0.028883794304039867,0.10031973344285194
3482.868,0.028330540701567486,0.10094192467799384
3484.797,0.02778685096042466,0.10112773511053463
3486.725,0.02725328878174338,0.10183318650381207
3488.6540000000005,0.026729300677786227,0.10001420483115953
3490.5820000000003,0.02621542992289605,0.09871679488252194
3492.511,0.025711143456124574,0.09704595752436673
3494.4390000000003,0.0252169641250255,0.09632761284859226
3496.368,0.024732379295436147,0.0948410059264379
3498.296,0.024257891388128172,0.0943410674716717
3500.225,0.023793008195724497,0.09471659455369436
3502.153,0.02333821171220407,0.09667027913991355
3504.0820000000003,0.02289303015698607,0.0964459974382833
3506.01,0.0224579250972603,0.09860252168329164
3507.9390000000003,0.022032445179224425,0.10344344686565582
3509.867,0.021617031543289755,0.10969889891258816
3511.796,0.021211253262439556,0.11257121919283186
3513.724,0.020815531050292435,0.11436080575350821
3515.653,0.020429454406631464,0.11753375190085869
3517.5809999999997,0.020053423618275446,0.12348043870862241
3519.51,0.019687048611793045,0.12876802062908432
3521.438,0.01933070924722813,0.13507680111363307
3523.367,0.018984035877934957,0.13943828293334576
3525.295,0.01864738793715759,0.14180768130371985
3527.224,0.018320416205050094,0.13980644116885066
3529.152,0.018003459688063828,0.13424595909289244
3531.0809999999997,0.017696189593138456,0.12807632632720928
3533.009,0.017398924499946844,0.12364883654321501
3534.938,0.017111356042203596,0.11942442683457799
3536.866,0.016833782372803086,0.11565039836104918
3538.795,0.016565915552245514,0.11349023526146113
3540.723,0.016308033306632552,0.11390944369730965
3542.652,0.016059868123260657,0.11299314916168829
3544.58,0.015821677301438797,0.108967062211348
3546.509,0.015593213755252577,0.10094590481343235
3548.437,0.01537471435722182,0.09569154461376778
3550.366,0.015165952448217723,0.09510348048415873
3552.2940000000003,0.014967144473978067,0.09708385117951435
3554.223,0.014778084202159647,0.10205169442919587
3556.151,0.014598967651711092,0.11292301759037932
3558.08,0.014429609017078349,0.12846243586314
3560.008,0.014270183890417343,0.14821692820904692
3561.937,0.014120526892973828,0.16498838850174974
3563.865,0.013980793190103924,0.17574916738808266
3565.7940000000003,0.01385083782983898,0.18111706877078776
3567.722,0.013730795550760178,0.18921204281980486
3569.651,0.01362054182768091,0.20639103201240805
3571.579,0.013520190972393209,0.22306572836451172
3573.508,0.013429638886499617,0.21894304887252192
3575.4359999999997,0.013348979455003018,0.19060472518464117
3577.365,0.013278129006295103,0.15340311025378783
3579.2929999999997,0.013217160998589605,0.12236163208743078
3581.222,0.013166012187063814,0.10009179636443721
3583.15,0.013124735603149418,0.08780905596664745
3585.079,0.013093288428809302,0.08261332230605373
3587.007,0.013071703268682455,0.07999693111926864
3588.9359999999997,0.013059957731524463,0.08002677025796306
3590.864,0.01305806399519227,0.09026898543369688
3592.7929999999997,0.013066020095219955,0.1029252363487303
3594.7209999999995,0.013083817782675311,0.12072225721985175
3596.65,0.013111475519892224,0.1381218712909842
3598.578,0.013148964631138682,0.14180969300557417
3600.507,0.013196324005537718,0.12190915461570967
3602.435,0.013253504540575278,0.08973143430507319
3604.364,0.013320565552156438,0.06739135196528018
3606.292,0.0133974375109851,0.05730042966782828
3608.2209999999995,0.013484200159755488,0.048488659437939896
3610.1490000000003,0.013580763542371699,0.04338259438747766
3612.078,0.013687227828327764,0.04152342616944843
3614.006,0.013803482634735076,0.037353143262363886
3615.935,0.013929648557873264,0.036184169293132507
3617.863,0.014065594788071678,0.037794609396705425
3619.792,0.014211462348395543,0.03396204417136589
3621.72,0.014367100002385058,0.03316433636676486
3623.6490000000003,0.014532669199894599,0.03540577212225238
3625.577,0.014707998277675216,0.03677330163135134
3627.506,0.014893269112363328,0.038433022204729606
3629.434,0.015088289613938599,0.02926756806320685
3631.363,0.015293262085812387,0.02612511454412797
3633.2909999999997,0.015507974011175207,0.0289534633687904
3635.22,0.01573264812023467,0.027208370782019486
3637.1479999999997,0.015967051469388593,0.02882229453283519
3639.077,0.016211427215633734,0.026473400440284622
3641.005,0.016465521988578757,0.026359505808853823
3642.934,0.01672959937200602,0.02471015601058768
3644.862,0.017003385568742146,0.02562473532481896
3646.7909999999997,0.01728716458935864,0.026361425322700416
3648.719,0.01758064220987876,0.020993046256713777
3650.6479999999997,0.01788412286768093,0.011189717221270878
3652.5759999999996,0.018197291911995706,0.013351328324535228
3654.505,0.01852047420698355,0.0182377892115953
3656.433,0.018853334675089428,0.015451527348563643
3658.362,0.019196218607255844,0.014231912394462587
3660.29,0.019548770499152823,0.014944254872321983
3662.219,0.019911356068504915,0.012768063723267054
3664.147,0.020283599384192996,0.012974714575172241
3666.0759999999996,0.020665886590730764,0.013897693718578907
3668.0040000000004,0.021057821330209947,0.016814057776228963
3669.933,0.02145981017393339,0.013234468609044536
3671.861,0.021871436337200123,0.009844120116858313
3673.79,0.02229312681810569,0.01514571883033261
3675.718,0.022724444405167077,0.007389171282693008
3677.647,0.02316583652325832,0.0010259152203987987
3679.575,0.023616845534107256,0.00402072648651336
3681.5040000000004,0.024077939289384176,0.003853375781878332
3683.4320000000002,0.024548639724024213,0.006231608936644983
3685.361,0.02502943511648681,0.007645688708439902
3687.289,0.025519826974917947,0.010616430985255942
3689.218,0.02602032400456622,0.004804147844215734
3691.1459999999997,0.026530407286784907,0.0018048802902898564
3693.075,0.027050605953618856,0.0005284398363336607
3695.0029999999997,0.027580380659632198,0.0022327195122064936
3696.9320000000002,0.028120280963644717,0.0010492328339899992
3698.86,0.028669747093445608,0.0004997667041891085
