baseline wavenumber (cm-1),baseline absorbance (cm-1),baseline-subtracted absorbance (cm-1)
3199.379,0.21442029718,1.38777878078e-14
3201.308,0.212421299487,0.00182261034821
3203.236,0.210433183793,0.00219544250826
3205.165,0.208453887738,0.00082388442458
3207.093,0.206485463467,-7.58809343832e-05
3209.021,0.204526882357,0.000388714530059
3210.95,0.202577136203,0.00133775311289
3212.878,0.200638246516,0.00164973488527
3214.807,0.198708201999,0.00105931038343
3216.736,0.196788010855,0.00257669145975
3218.664,0.194878660856,0.00264281897791
3220.593,0.192978171349,0.00173374616799
3222.521,0.191088512775,0.00100488659875
3224.449,0.189208697359,0.00103137137663
3226.378,0.187337757754,0.00205474199355
3228.306,0.185477633762,0.00401443133469
3230.235,0.183626395794,0.0042700966755
3232.164,0.181785011199,0.00381642415972
3234.092,0.179954426895,0.00423742593015
3236.021,0.178132743937,0.00495074944221
3237.949,0.176321851057,0.00502910416366
3239.877,0.174520801337,0.00575868921221
3241.806,0.17272866828,0.00529619778661
3243.734,0.170947309984,0.00593634512611
3245.663,0.169174878564,0.00617991775625
3247.592,0.167412300518,0.00498282735038
3249.52,0.165660481909,0.00610996183867
3251.448,0.16391850646,0.00776702876665
3253.377,0.162185478315,0.00737582765845
3255.305,0.16046319429,0.00829249154838
3257.234,0.158749867782,0.00931340928212
3259.162,0.157047275181,0.00861228208182
3261.091,0.15535365031,0.0076312885352
3263.02,0.153669878813,0.00941967946091
3264.948,0.151996825899,0.00989390492037
3266.876,0.150333616145,0.0111280233977
3268.805,0.148679394549,0.0114782927043
3270.733,0.147035876219,0.0132031817006
3272.662,0.14540135626,0.0130581605698
3274.591,0.143776689674,0.0122194692263
3276.519,0.142162711032,0.0105361669624
3278.448,0.140557746083,0.0115381803296
3280.376,0.138963458865,0.013220408516
3282.304,0.137379014806,0.0136328117379
3284.233,0.135803599759,0.013121903122
3286.161,0.134238847124,0.0136247938345
3288.09,0.132683133714,0.0150197875438
3290.019,0.131137273676,0.0166647075228
3291.947,0.129602060729,0.0170561824729
3293.875,0.128076690942,0.0172240267372
3295.804,0.126560380806,0.0177542861301
3297.732,0.125054702442,0.0193423459756
3299.661,0.123558093944,0.019042734925
3301.589,0.122072107004,0.0190574795724
3303.518,0.120595200143,0.0197019796815
3305.447,0.119128146654,0.020682830805
3307.375,0.117671699402,0.019388343052
3309.303,0.11622509531,0.0193389398664
3311.232,0.114787591723,0.0191070812782
3313.16,0.113360679054,0.01896672416
3315.089,0.111942877105,0.0196835254023
3317.017,0.11053565586,0.0213495154734
3318.946,0.109137555547,0.0209018662662
3320.875,0.107749308607,0.0220712716011
3322.803,0.106371627051,0.024886838531
3324.731,0.105003788654,0.0254748325937
3326.66,0.103645091615,0.0242529170777
3328.588,0.102296944642,0.0234080993285
3330.517,0.100957949241,0.0228058231234
3332.445,0.0996294936913,0.0224992842325
3334.374,0.0983101999274,0.0249062157201
3336.302,0.0970014358016,0.0268239963221
3338.231,0.0957018436749,0.0251103467628
3340.159,0.0944127709729,0.0253330088715
3342.088,0.0931328804833,0.0265401206286
3344.016,0.0918634992051,0.0272378856124
3345.945,0.0906033103528,0.02716935719
3347.873,0.0893536204984,0.0276624514717
3349.802,0.0881131332832,0.0277182626534
3351.73,0.0868831348526,0.0278919586479
3353.659,0.0856623492745,0.0262182733879
3355.587,0.0844520422677,0.0253715703877
3357.516,0.0832509583269,0.0265256513971
3359.444,0.0820603427439,0.0282085342398
3361.373,0.0808789604402,0.0284736120858
3363.302,0.0797074315092,0.0293343151804
3365.23,0.0785463556146,0.0287193878404
3367.158,0.0773951228791,0.0298822449567
3369.087,0.0762531438498,0.0294438135948
3371.015,0.0751216025382,0.0287665001607
3372.944,0.0739993251461,0.0293500127696
3374.872,0.0728874752582,0.0300686553391
3376.801,0.0717848995033,0.0295503880737
3378.729,0.0706927410393,0.0291556366015
3380.658,0.0696098669216,0.0278716856914
3382.586,0.0685373998813,0.0293884062443
3384.515,0.0674742274008,0.0306956907232
3386.443,0.0664214517843,0.0310363466591
3388.372,0.0653779809409,0.0312049564896
3390.3,0.0643448967482,0.0325084338896
3392.229,0.0633211275421,0.03270535583
3394.157,0.0623077347731,0.0325072859486
3396.086,0.0613036672042,0.032441910477
3398.014,0.060309965859,0.0329736690343
3399.943,0.0593255999273,0.0325004386859
3401.871,0.0583515900059,0.03305496008
3403.8,0.0573869257113,0.0332054123055
3405.728,0.0564326072138,0.0345104838607
3407.657,0.0554876445564,0.034823686688
3409.585,0.0545530174826,0.0344472857621
3411.514,0.0536277564624,0.0342955226238
3413.442,0.0527128208124,0.0334870174571
3415.371,0.0518072614294,0.0321243063458
3417.299,0.0509120172032,0.0325474996269
3419.228,0.0500261594573,0.0330644096319
3421.156,0.049150606655,0.0335679822463
3423.085,0.0482844505463,0.0321749652022
3425.013,0.0474285891677,0.0329959534382
3426.942,0.0465821346962,0.0335487659406
3428.87,0.0457459647414,0.0343404600034
3430.799,0.0449192119071,0.0343277303753
3432.727,0.0441027333761,0.0333510218043
3434.656,0.043295682179,0.033110867907
3436.584,0.0424988950717,0.0323641393971
3438.513,0.0417115455118,0.0293311109119
3440.441,0.0409344498284,0.028852268053
3442.37,0.0401668019056,0.028659135626
3444.298,0.039409397646,0.029816822914
3446.227,0.0386614513604,0.029625721388
3448.155,0.0379237385246,0.0295340599188
3450.084,0.0371954938762,0.0306489415832
3452.012,0.0364774724641,0.0318147543629
3453.941,0.0357689294529,0.0315872820097
3455.869,0.0350705994647,0.0311833174463
3457.798,0.0343817580906,0.0315957007186
3459.726,0.0337031195262,0.0330759161556
3461.655,0.0330339797893,0.031804795102
3463.583,0.0323750326487,0.0314549481458
3465.512,0.031725594549,0.032247416671
3467.44,0.0310863388321,0.0328128828398
3469.369,0.0304566023697,0.031944084985
3471.297,0.0298370380766,0.0333086204699
3473.226,0.0292270032513,0.0323599774421
3475.154,0.028627130382,0.0316599412849
3477.083,0.0280367971939,0.0324974189185
3479.011,0.0274566157484,0.0336295057517
3480.94,0.0268859841974,0.0334420255064
3482.868,0.0263254941757,0.035252894584
3484.797,0.025774564262,0.036770164334
3486.725,0.025233765664,0.0363643340024
3488.654,0.0247025373875,0.035712402469
3490.582,0.0241814302134,0.036762166269
3492.511,0.023669903574,0.0383254466736
3494.439,0.0231684878236,0.0378428333125
3496.368,0.0226766628215,0.0373076695347
3498.296,0.0221949384949,0.0408177977833
3500.225,0.0217228151299,0.0392667734681
3502.153,0.0212607822271,0.0387250663527
3504.082,0.0208083604993,0.040700787383
3506.01,0.0203660190204,0.0421827528385
3507.939,0.0199332989297,0.0411265413614
3509.867,0.0195106488746,0.0439342111275
3511.796,0.0190976304211,0.0464158639689
3513.724,0.0186946717897,0.0443483889603
3515.653,0.0183013549735,0.0416607394367
3517.581,0.0179180877659,0.0404666287003
3519.51,0.0175444725868,0.0380392734963
3521.438,0.017180896803,0.038228483567
3523.367,0.0168269832611,0.03892051497
3525.295,0.0164830989011,0.0401018601609
3527.224,0.0161488869964,0.040333979677
3529.152,0.0158246940601,0.0434550997335
3531.081,0.0155101837926,0.0443007936662
3533.009,0.0152056822802,0.0441842904278
3534.938,0.0149108736498,0.0450320152615
3536.866,0.0146260635612,0.0464999851601
3538.795,0.014350956568,0.0455843512253
3540.723,0.0140858379032,0.0434487825355
3542.652,0.0138304325472,0.0413095654312
3544.58,0.0135850053061,0.0422100012642
3546.509,0.0133493015874,0.0408860163142
3548.437,0.0131235657701,0.04141499685
3550.366,0.0129075636885,0.0422764047741
3552.294,0.012701519295,0.0435948518765
3554.223,0.0125052188506,0.0473163721734
3556.151,0.0123188658809,0.0514964580856
3558.08,0.0121422670737,0.0548035532033
3560.008,0.0119756055278,0.0576625224415
3561.937,0.0118187083577,0.0584087251811
3563.865,0.0116717382356,0.0599041234848
3565.794,0.0115345427028,0.0567526300457
3567.722,0.0114072640044,0.0509706799964
3569.651,0.0112897701088,0.05145307837
3571.579,0.0111821828342,0.0508450081089
3573.508,0.0110843905757,0.0479608939689
3575.436,0.010996494725,0.0467559565032
3577.365,0.0109184041037,0.0457251822705
3579.293,0.0108501996767,0.0454552688364
3581.222,0.0107918106926,0.0454014572746
3583.15,0.0107432976894,0.0465911812351
3585.079,0.0107046103425,0.0485377832691
3587.007,0.0106757887631,0.0493388680649
3588.936,0.0106568030534,0.0550502625485
3590.864,0.0106476728978,0.0662617580129
3592.793,0.0106483888252,0.0752355695291
3594.721,0.0106589500935,0.0897059543845
3596.65,0.0106793676581,0.103519055469
3598.578,0.0107096203501,0.107712496298
3600.507,0.0107497395519,0.0941784925314
3602.435,0.0107996836677,0.0722585393183
3604.364,0.0108595045067,0.0557411221991
3606.292,0.0109291400462,0.04648064465
3608.221,0.0110086625224,0.0416518044744
3610.149,0.0110979894858,0.0411020509468
3612.078,0.0111972135992,0.0380820747866
3614.006,0.0113062319863,0.0334890778287
3615.935,0.0114251577369,0.0295972823723
3617.863,0.0115538675478,0.0270790041797
3619.792,0.0116924949355,0.0278915543923
3621.72,0.0118408961703,0.0304673015453
3623.649,0.0119992251952,0.0275615753709
3625.577,0.0121673178537,0.0271892979352
3627.506,0.0123453485158,0.0238489302672
3629.434,0.0125331325981,0.0202845162445
3631.363,0.0127308648974,0.0257761602719
3633.291,0.0129383404035,0.0274553723226
3635.22,0.01315577434,0.0290301146724
3637.148,0.0133829412699,0.0292800527663
3639.077,0.0136200768436,0.0286532477294
3641.005,0.0138669351973,0.0293398777007
3642.934,0.0141237724081,0.0261784614947
3644.862,0.0143903221856,0.0220930498957
3646.791,0.0146668610336,0.0143688207616
3648.719,0.0149531022349,0.00827544320128
3650.648,0.0152493427201,0.0101570052027
3652.576,0.0155552753452,0.0225277126261
3654.505,0.0158712174676,0.024852021186
3656.433,0.0161968415164,0.0227903211238
3658.362,0.016532485276,0.023497333788
3660.29,0.0168778007486,0.0220962212871
3662.219,0.0172331461454,0.0204136748391
3664.147,0.0175981530418,0.0196539444008
3666.076,0.0179732000758,0.0151133257506
3668.004,0.018357898396,0.0106221885341
3669.933,0.0187526470671,0.00814212701554
3671.861,0.0191570368112,0.0143944642502
3673.79,0.0195714871195,0.0133224783106
3675.718,0.0199955682873,0.00778316414979
3677.647,0.0204297202328,0.00918212652754
3679.575,0.0208734928244,0.0114165102081
3681.504,0.0213273464071,0.0137732297579
3683.432,0.0217908104225,0.0128700609007
3685.361,0.0222643656423,0.00728582135857
3687.289,0.0227475210815,-0.000627335091423
3689.218,0.0232407779386,-0.00537359912528
3691.146,0.0237436248015,0.000149531975972
3693.075,0.0242565832958,0.00466386550639
3695.003,0.0247791215825,0.00607249066854
3696.932,0.025311781714,0.00553326023487
3698.86,0.0258540114245,0.00499103052432
