wavenumber (/cm),baseline value (/cm),baseline-subtracted absorbance (/cm),
3.199378999999999905e+03,1.639042757505251302e-01,-1.971090670165320802e-03
3.201307999999999993e+03,1.620026629361532855e-01,-2.382840824184384587e-04
3.203235999999999876e+03,1.601125849012099422e-01,1.148913127699269232e-03
3.205164999999999964e+03,1.582320809838222431e-01,-7.318282798902675523e-04
3.207092999999999847e+03,1.563631009029400332e-01,-1.137183587666679152e-03
3.209021000000000186e+03,1.545046670640637387e-01,3.669593384429958860e-04
3.210949999999999818e+03,1.526558237557118503e-01,6.490382679411599298e-04
3.212878000000000156e+03,1.508184878708966892e-01,1.496785554757740222e-03
3.214806999999999789e+03,1.489907534595289462e-01,3.297227941461478018e-03
3.216735999999999876e+03,1.471735762330972364e-01,5.707754000401132899e-03
3.218664000000000215e+03,1.453678900143948738e-01,5.168853137328399683e-03
3.220592999999999847e+03,1.435718216849437567e-01,4.258967762139964641e-03
3.222521000000000186e+03,1.417872334203025275e-01,4.653178992514495071e-03
3.224449000000000069e+03,1.400131913976743192e-01,3.352319569676187605e-03
3.226378000000000156e+03,1.382487836772590128e-01,1.429271513279650740e-03
3.228306000000000040e+03,1.364958396086883852e-01,2.691969953628303713e-03
3.230235000000000127e+03,1.347525407852572243e-01,4.721835036030408439e-03
3.232164000000000215e+03,1.330197991467585439e-01,5.630256448106440992e-03
3.234092000000000098e+03,1.312985047443007147e-01,6.118861069911329942e-03
3.236021000000000186e+03,1.295868720027826271e-01,7.654106466842280909e-03
3.237949000000000069e+03,1.278866755543894840e-01,7.286173935148521075e-03
3.239876999999999953e+03,1.261970253480058091e-01,9.241163270208851976e-03
3.241806000000000040e+03,1.245170532155235321e-01,9.658121150189491466e-03
3.243733999999999924e+03,1.228485009632009906e-01,8.682884865162443511e-03
3.245663000000000011e+03,1.211896377277028591e-01,8.626393809747723296e-03
3.247592000000000098e+03,1.195413316771372081e-01,7.530840565862728653e-03
3.249519999999999982e+03,1.179044290909274650e-01,8.061910745320255423e-03
3.251447999999999865e+03,1.162780727467271902e-01,1.074103167053741537e-02
3.253376999999999953e+03,1.146614273051973498e-01,1.100217322042662538e-02
3.255304999999999836e+03,1.130561689150546556e-01,1.032248265676372068e-02
3.257233999999999924e+03,1.114606323705089608e-01,1.122207257237983757e-02
3.259161999999999807e+03,1.098764719344309526e-01,1.188285284066259440e-02
3.261090999999999894e+03,1.083020442868694033e-01,1.205679529667458283e-02
3.263019999999999982e+03,1.067381738242332290e-01,1.311172004011518233e-02
3.264947999999999865e+03,1.051856630542715720e-01,1.497859450157579264e-02
3.266876000000000204e+03,1.036436985263158306e-01,1.641695041738167049e-02
3.268804999999999836e+03,1.021114886727225723e-01,1.562782195095069326e-02
3.270733000000000175e+03,1.005906220988244115e-01,1.740088704905784489e-02
3.272661999999999807e+03,9.907952114221174611e-02,2.052524990802573335e-02
3.274590999999999894e+03,9.757897737053156106e-02,1.864865833147977270e-02
3.276518999999999778e+03,9.608976046274975147e-02,1.559021527767279203e-02
3.278447999999999865e+03,9.461032558805371195e-02,1.817194470407190732e-02
3.280376000000000204e+03,9.314220663433658842e-02,2.065947131977230455e-02
3.282304000000000087e+03,9.168463392262538036e-02,2.017476160956899189e-02
3.284233000000000175e+03,9.023685965696159883e-02,1.875283002260963450e-02
3.286161000000000058e+03,8.880038489931507684e-02,2.024591046104073921e-02
3.288090000000000146e+03,8.737371953063899355e-02,2.173271936555010164e-02
3.290018999999999778e+03,8.595761134689183791e-02,2.201014363137565599e-02
3.291947000000000116e+03,8.455278625535456172e-02,2.134835596641826427e-02
3.293875000000000000e+03,8.315850740583030642e-02,2.148669627353894107e-02
3.295804000000000087e+03,8.177405983111896148e-02,2.228689235729697238e-02
3.297731999999999971e+03,8.040087893565228683e-02,2.457132363181957491e-02
3.299661000000000058e+03,7.903754025792508742e-02,2.233615831682456143e-02
3.301588999999999942e+03,7.768545731652309883e-02,2.122387251264901131e-02
3.303518000000000029e+03,7.634322753577649223e-02,2.315035378434882052e-02
3.305447000000000116e+03,7.501155493996591872e-02,2.479689547952246276e-02
3.307375000000000000e+03,7.369112166467672864e-02,2.502615317611966983e-02
3.309302999999999884e+03,7.238123463139700675e-02,2.553648496831995018e-02
3.311231999999999971e+03,7.108122264461869122e-02,2.478049776375079727e-02
3.313159999999999854e+03,6.979243356540010268e-02,2.474663446249836252e-02
3.315088999999999942e+03,6.851353047560948539e-02,2.284045719243843475e-02
3.317016999999999825e+03,6.724583935044847749e-02,2.345768839644324366e-02
3.318945999999999913e+03,6.598804515764200573e-02,2.377188610688840686e-02
3.320875000000000000e+03,6.474080814976446163e-02,2.415285403561917565e-02
3.322802999999999884e+03,6.350476669071980496e-02,2.569517266033649605e-02
3.324731000000000222e+03,6.227927147368461647e-02,2.672002095530545684e-02
3.326659999999999854e+03,6.106369507484288306e-02,2.699402250324245411e-02
3.328588000000000193e+03,5.985929781186882792e-02,2.748731090136269373e-02
3.330516999999999825e+03,5.866483031001124004e-02,2.602687089285937727e-02
3.332445000000000164e+03,5.748153100109831826e-02,2.765947779299837705e-02
3.334373999999999796e+03,5.630817239622132320e-02,3.130225922209461942e-02
3.336302000000000135e+03,5.514597104137308747e-02,3.126512771532352630e-02
3.338231000000000222e+03,5.399372133348023794e-02,2.954666075486500620e-02
3.340159000000000106e+03,5.285261793268958286e-02,2.974366226543023739e-02
3.342088000000000193e+03,5.172147712178443157e-02,3.160562284789103504e-02
3.344016000000000076e+03,5.060147167505490984e-02,3.252194892536941495e-02
3.345945000000000164e+03,4.949143976113035137e-02,3.195857540110536021e-02
3.347873000000000047e+03,4.839253226846551570e-02,3.207598082159812680e-02
3.349802000000000135e+03,4.730360925152510276e-02,3.206513632615592968e-02
3.351730000000000018e+03,4.622579971291784773e-02,3.190722363692533037e-02
3.353659000000000106e+03,4.515798559296158032e-02,3.020843510854442915e-02
3.355586999999999989e+03,4.410127400841901135e-02,2.918539333212477604e-02
3.357516000000000076e+03,4.305456878544333676e-02,3.054444061514283160e-02
3.359443999999999960e+03,4.201895515496190114e-02,3.144460493803313827e-02
3.361373000000000047e+03,4.099335882897037209e-02,3.297510372030676429e-02
3.363302000000000135e+03,3.997831968791487611e-02,3.397952929621528284e-02
3.365230000000000018e+03,3.897435572354623901e-02,3.187068622530631057e-02
3.367157999999999902e+03,3.798093800118351737e-02,3.265638131550496759e-02
3.369086999999999989e+03,3.699755946916027938e-02,3.293269424558742386e-02
3.371014999999999873e+03,3.602523970086224381e-02,3.146844270083570816e-02
3.372943999999999960e+03,3.506297006582315134e-02,3.167158972392714045e-02
3.374871999999999844e+03,3.411174825158624913e-02,3.303775139462816757e-02
3.376800999999999931e+03,3.317058751353130219e-02,3.491442208921802237e-02
3.378728999999999814e+03,3.224046365335553332e-02,3.362681624151953041e-02
3.380657999999999902e+03,3.132041181228117921e-02,3.317418032357233315e-02
3.382585999999999785e+03,3.041138590617009640e-02,3.386941870314952308e-02
3.384514999999999873e+03,2.951244296207988782e-02,3.151151337068058833e-02
3.386443000000000211e+03,2.862451501002638565e-02,3.269409410753132406e-02
3.388371999999999844e+03,2.774668096292032260e-02,3.486223443180314074e-02
3.390300000000000182e+03,2.687985096493150650e-02,3.510033704679393907e-02
3.392228999999999814e+03,2.602312581480958897e-02,3.497909797979259494e-02
3.394157000000000153e+03,2.517739377087835351e-02,3.506014792527034629e-02
3.396085999999999785e+03,2.434177751774058152e-02,3.356937177974239628e-02
3.398014000000000124e+03,2.351714342787403211e-02,3.279337916385749452e-02
3.399943000000000211e+03,2.270263607171685294e-02,3.310803814237373022e-02
3.401871000000000095e+03,2.189909993591143689e-02,3.558497971636787049e-02
3.403800000000000182e+03,2.110570147674195596e-02,3.559651220970305729e-02
3.405728000000000065e+03,2.032326329499412054e-02,3.552026243026618069e-02
3.407657000000000153e+03,1.955097373280523243e-02,3.538837732349719989e-02
3.409585000000000036e+03,1.878963350512208308e-02,3.545023306720163081e-02
3.411514000000000124e+03,1.803845283992089321e-02,3.526843081518871159e-02
3.413442000000000007e+03,1.729821056629532450e-02,3.290647961868387039e-02
3.415371000000000095e+03,1.656813879807472745e-02,3.005320963010671420e-02
3.417298999999999978e+03,1.584899447851384480e-02,3.099726044921269352e-02
3.419228000000000065e+03,1.514003160727739328e-02,3.351457265836488286e-02
3.421155999999999949e+03,1.444198524177764398e-02,3.164868492905015263e-02
3.423085000000000036e+03,1.375413126752533799e-02,2.874460521281418934e-02
3.425012999999999920e+03,1.307718285608672204e-02,2.965909532040156282e-02
3.426942000000000007e+03,1.241043777881856158e-02,2.909011816983186893e-02
3.428869999999999891e+03,1.175458732143752627e-02,2.640774968452619387e-02
3.430798999999999978e+03,1.110895114115351134e-02,2.432317258269156568e-02
3.432726999999999862e+03,1.047419863783716210e-02,2.439439531748466283e-02
3.434655999999999949e+03,9.849671354533739986e-03,2.453625809052828455e-02
3.436583999999999833e+03,9.236016805278524089e-03,2.256525682253895937e-02
3.438512999999999920e+03,8.632598418962800224e-03,1.951811420612559189e-02
3.440440999999999804e+03,8.040041823768717677e-03,2.068734117431070274e-02
3.442369999999999891e+03,7.457732334433586630e-03,2.038619771711791540e-02
3.444297999999999774e+03,6.886273693300637433e-03,1.826181081089417457e-02
3.446226999999999862e+03,6.325073100949651916e-03,1.873203798769873529e-02
3.448155000000000200e+03,5.774712413877836070e-03,1.939763166779595593e-02
3.450083999999999833e+03,5.234620718510996085e-03,1.802121674231982329e-02
3.452012000000000171e+03,4.705357985500313589e-03,1.791012771145705784e-02
3.453940999999999804e+03,4.186375187117619134e-03,1.707562824965569437e-02
3.455869000000000142e+03,3.678210408168069989e-03,1.661189370585192115e-02
3.457797999999999774e+03,3.180336506769521066e-03,1.734326604048608278e-02
3.459726000000000113e+03,2.693269681881105271e-03,2.036646952766096863e-02
3.461655000000000200e+03,2.216504677463149164e-03,2.033479422074768728e-02
3.463583000000000084e+03,1.750535806639419434e-03,1.772333460678421346e-02
3.465512000000000171e+03,1.294879699205608858e-03,1.700644446939836296e-02
3.467440000000000055e+03,8.500087824430124783e-04,1.979489165220771341e-02
3.469369000000000142e+03,4.154615719933474338e-04,1.916757694008597301e-02
3.471297000000000025e+03,-8.311390711668309450e-06,1.766170267748001788e-02
3.473226000000000113e+03,-4.217497041771878230e-04,1.744186493717014841e-02
3.475153999999999996e+03,-8.244247128175175021e-04,1.870221709126684839e-02
3.477083000000000084e+03,-1.216754129302444198e-03,2.066737578097532779e-02
3.479010999999999967e+03,-1.598331183881640527e-03,2.477178716285655113e-02
3.480940000000000055e+03,-1.969551703378868979e-03,2.663749873663456835e-02
3.482867999999999938e+03,-2.330030803900484671e-03,2.670332505235895049e-02
3.484797000000000025e+03,-2.680142426413567591e-03,2.596883139841388299e-02
3.486724999999999909e+03,-3.019523572870497219e-03,2.373113784558844586e-02
3.488653999999999996e+03,-3.348526298399434609e-03,2.244687866876216020e-02
3.490581999999999880e+03,-3.666809490798783600e-03,2.332060510385847163e-02
3.492510999999999967e+03,-3.974703319347128172e-03,2.564810875753564812e-02
3.494438999999999851e+03,-4.271888557678238385e-03,2.584168538371678370e-02
3.496367999999999938e+03,-4.558673489242437427e-03,2.753653662479282893e-02
3.498295999999999822e+03,-4.834760773519519717e-03,3.317247430834213695e-02
3.500224999999999909e+03,-5.100436808099573227e-03,3.477242710426853289e-02
3.502152999999999793e+03,-5.355426138308416739e-03,3.654717788196548689e-02
3.504081999999999880e+03,-5.599993275907877432e-03,3.612005796811446068e-02
3.506010000000000218e+03,-5.833884652059140308e-03,3.651921771584154541e-02
3.507938999999999851e+03,-6.057342892670902756e-03,3.673509483849113355e-02
3.509867000000000189e+03,-6.270136314761032281e-03,3.873096720528956816e-02
3.511795999999999822e+03,-6.472485658392201913e-03,4.181262515096262344e-02
3.513724000000000160e+03,-6.664181126417645373e-03,3.989676982549772433e-02
3.515652999999999793e+03,-6.845421573064669474e-03,3.624550243832280749e-02
3.517581000000000131e+03,-7.016019087032532298e-03,3.555690658324184295e-02
3.519510000000000218e+03,-7.176150636695410867e-03,3.511155951165734201e-02
3.521438000000000102e+03,-7.325650196598587627e-03,3.771784669917610522e-02
3.523367000000000189e+03,-7.464672849280873379e-03,3.910269973697910739e-02
3.525295000000000073e+03,-7.593074455122916788e-03,4.096515572470749156e-02
3.527224000000000160e+03,-7.710988210817504296e-03,3.931565817948201591e-02
3.529152000000000044e+03,-7.818291862601967068e-03,4.098163968429402448e-02
3.531081000000000131e+03,-7.915096721315961759e-03,4.150399796461934354e-02
3.533009000000000015e+03,-8.001302419035738467e-03,4.145374353901931652e-02
3.534938000000000102e+03,-8.076998380762034913e-03,4.315533659970460789e-02
3.536865999999999985e+03,-8.142106124420678270e-03,4.510106700585192474e-02
3.538795000000000073e+03,-8.196693189169934612e-03,4.378852579808523160e-02
3.540722999999999956e+03,-8.240702978767444620e-03,4.429650000696916390e-02
3.542652000000000044e+03,-8.274181146525450004e-03,4.400045224730353421e-02
3.544579999999999927e+03,-8.297092982065379374e-03,4.322380884176402205e-02
3.546509000000000015e+03,-8.309462252842791941e-03,4.093455069921891898e-02
3.548436999999999898e+03,-8.311276134318035247e-03,4.192494236296440135e-02
3.550365999999999985e+03,-8.302536508111302282e-03,4.264752791617754113e-02
3.552293999999999869e+03,-8.283252435525412238e-03,4.495362542652903137e-02
3.554222999999999956e+03,-8.253403912338086457e-03,4.909339178254923386e-02
3.556150999999999840e+03,-8.213021885687510348e-03,5.172712276509716656e-02
3.558079999999999927e+03,-8.162064465516039036e-03,5.401064426941759589e-02
3.560007999999999811e+03,-8.100584484807882291e-03,5.768412840475123371e-02
3.561936999999999898e+03,-8.028518167652265447e-03,6.122673913197040907e-02
3.563864999999999782e+03,-7.945940232879422638e-03,6.464562688000363710e-02
3.565793999999999869e+03,-7.852765018739660263e-03,6.414357670376946707e-02
3.567722000000000207e+03,-7.749089129909236817e-03,5.705415331670793400e-02
3.569650999999999840e+03,-7.634805018785328912e-03,5.615042212178744663e-02
3.571579000000000178e+03,-7.510031175893772115e-03,5.453469507966390850e-02
3.573507999999999811e+03,-7.374638167785718679e-03,4.959034624420322057e-02
3.575436000000000149e+03,-7.228766370829475818e-03,4.524251346473406876e-02
3.577364999999999782e+03,-7.072264465740829564e-03,4.216576492060786219e-02
3.579293000000000120e+03,-6.905294714727006067e-03,4.368230876506551397e-02
3.581222000000000207e+03,-6.727683912650661568e-03,4.495976720386662961e-02
3.583150000000000091e+03,-6.539616207572152007e-03,4.596294583458104821e-02
3.585079000000000178e+03,-6.340896508515214691e-03,4.829581412703332077e-02
3.587007000000000062e+03,-6.131730849379124493e-03,5.506885811107919970e-02
3.588936000000000149e+03,-5.911902253334488933e-03,6.107211654626876207e-02
3.590864000000000033e+03,-5.681638640133712670e-03,6.779525432799360374e-02
3.592793000000000120e+03,-5.440701147112037006e-03,7.688768386216293660e-02
3.594721000000000004e+03,-5.189339579850127393e-03,9.202144308738058331e-02
3.596650000000000091e+03,-4.927293189840753485e-03,1.075084111520361319e-01
3.598577999999999975e+03,-4.654833668517710521e-03,1.142661750209891247e-01
3.600507000000000062e+03,-4.371678381527743795e-03,1.004997487343023410e-01
3.602434999999999945e+03,-4.078120906143567481e-03,7.582430507676918285e-02
3.604364000000000033e+03,-3.773856722165902511e-03,5.828209487035129754e-02
3.606291999999999916e+03,-3.459201292724145560e-03,4.631930439592835125e-02
3.608221000000000004e+03,-3.133828211762335059e-03,3.528181163438437462e-02
3.610148999999999887e+03,-2.798074828255892044e-03,3.328730964074944065e-02
3.612077999999999975e+03,-2.451592850309936011e-03,3.439589690368094477e-02
3.614005999999999858e+03,-2.094741512745912360e-03,3.509736963363940809e-02
3.615934999999999945e+03,-1.727150637819363510e-03,3.497287994136732969e-02
3.617862999999999829e+03,-1.349201346187101080e-03,3.372562912340326680e-02
3.619791999999999916e+03,-9.605015742764066999e-04,3.052079673246899105e-02
3.621719999999999800e+03,-5.614543285901163472e-04,3.125588473392715283e-02
3.623648999999999887e+03,-1.516456596952764357e-04,2.881837971407708032e-02
3.625577000000000226e+03,2.684995400592526948e-04,2.695276802286394879e-02
3.627505999999999858e+03,6.994171059382381372e-04,2.262616664014471812e-02
3.629434000000000196e+03,1.140660259750347905e-03,1.905594339940253068e-02
3.631362999999999829e+03,1.592686722609926164e-03,2.419170628254507793e-02
3.633291000000000167e+03,2.055027830483169282e-03,2.492970885201950537e-02
3.635219999999999800e+03,2.528163190326893073e-03,2.609561119560244169e-02
3.637148000000000138e+03,3.011602252264822255e-03,2.639050024444999920e-02
3.639077000000000226e+03,3.505846509096244290e-03,2.632383104068625190e-02
3.641005000000000109e+03,4.010383525091754109e-03,3.055951438251947039e-02
3.642934000000000196e+03,4.525736678903768961e-03,2.827119044128212355e-02
3.644862000000000080e+03,5.051371648963964844e-03,2.554602044645704062e-02
3.646791000000000167e+03,5.587833699760125228e-03,2.248858396929875880e-02
3.648719000000000051e+03,6.134566623877901748e-03,1.540591654604006600e-02
3.650648000000000138e+03,6.692137571658207662e-03,1.548061083630691837e-02
3.652576000000000022e+03,7.259968449837117532e-03,2.214365027046993895e-02
3.654505000000000109e+03,7.838648294601568978e-03,2.361288309122677731e-02
3.656432999999999993e+03,8.427577126841612198e-03,2.082997872072722689e-02
3.658362000000000080e+03,9.027365868590209175e-03,1.997799145476963911e-02
3.660289999999999964e+03,9.637392654894938460e-03,2.020896335440447444e-02
3.662219000000000051e+03,1.025829029362412825e-02,1.804909876934956969e-02
3.664146999999999935e+03,1.088941503398999089e-02,1.731183837751304466e-02
3.666076000000000022e+03,1.153142156970332621e-02,1.419434412321074479e-02
3.668003999999999905e+03,1.218364426413032220e-02,1.012556426715427449e-02
3.669932999999999993e+03,1.284675969682780305e-02,6.583140232415019000e-03
3.671860999999999876e+03,1.352008034531593239e-02,1.174323715190428441e-02
3.673789999999999964e+03,1.420430467499755878e-02,7.554514692231784068e-03
3.675717999999999847e+03,1.489872327754326875e-02,-8.579874036931389725e-04
3.677646999999999935e+03,1.560405650420904067e-02,1.014950662123315084e-02
3.679574999999999818e+03,1.631957306081943671e-02,1.421009438080589327e-02
3.681503999999999905e+03,1.704601518446935415e-02,1.419981520065138891e-02
3.683431999999999789e+03,1.778262969514088354e-02,1.159723485555141931e-02
3.685360999999999876e+03,1.853018071577139381e-02,8.466180347606711010e-03
3.687289000000000215e+03,1.928789318050760926e-02,1.798733727406909289e-03
3.689217999999999847e+03,2.005655309812226506e-02,-5.077780228416539643e-03
3.691146000000000186e+03,2.083536351691606114e-02,2.442711889937165815e-03
3.693074999999999818e+03,2.162513233151486247e-02,6.216270680715951791e-03
3.695003000000000156e+03,2.242504070437334462e-02,6.771360791633762588e-03
3.696931999999999789e+03,2.323591841595629148e-02,5.486915911345757735e-03
3.698860000000000127e+03,2.405692474287235427e-02,4.213569546018702816e-03
