baseline wavenumber (cm-1),baseline absorbance (cm-1),baseline-subtracted absorbance (cm-1)
3199.379,0.196545789952,1.80966353014e-14
3201.308,0.194574237092,0.00220222101006
3203.236,0.192613552002,0.00312414131628
3205.165,0.190661700779,0.00388929487493
3207.093,0.188720707113,0.00521328661999
3209.021,0.186789556607,0.00764211225022
3210.95,0.184867255285,0.00812314196593
3212.878,0.182955796202,0.00891957021866
3214.807,0.181053196517,0.00935577952634
3216.736,0.179160450205,0.0101440580329
3218.664,0.177278530811,0.00981466639917
3220.593,0.175405486136,0.010832560968
3222.521,0.173543258166,0.0113618767783
3224.449,0.171690873354,0.0118069533918
3226.378,0.169847378581,0.0126715236729
3228.306,0.168014685194,0.0140665843908
3230.235,0.166190892058,0.0153436778401
3232.164,0.164376952294,0.0157175084354
3234.092,0.162573798595,0.0147468321537
3236.021,0.160779560469,0.0137188727665
3237.949,0.158996098194,0.0128999394085
3239.877,0.157222479078,0.0133771368122
3241.806,0.155457790853,0.015845706569
3243.734,0.153703863161,0.0181272295307
3245.663,0.151958876574,0.0193314297033
3247.592,0.150223743359,0.0198887098906
3249.52,0.148499355355,0.0198056077499
3251.448,0.146784810511,0.0188110653612
3253.377,0.145079227198,0.0178074603591
3255.305,0.143384373777,0.0201184059664
3257.234,0.141698492101,0.022181018664
3259.162,0.140023330104,0.0226498226302
3261.091,0.138357150066,0.0220907929245
3263.02,0.1367008234,0.0220632016686
3264.948,0.135055201091,0.0222764475496
3266.876,0.133419421941,0.0227050094748
3268.805,0.131792645177,0.0228352735532
3270.733,0.130176557451,0.0235046818086
3272.662,0.128569482325,0.0234108067688
3274.591,0.12697226057,0.0248987593429
3276.519,0.125385712533,0.0258484934715
3278.448,0.123808192416,0.026288441568
3280.376,0.122241335802,0.0265800530588
3282.304,0.120684322348,0.0257730717694
3284.233,0.119136352132,0.025644452477
3286.161,0.117599030102,0.0262719898114
3288.09,0.116070761523,0.0271158856007
3290.019,0.114552346318,0.0296221204768
3291.947,0.113044563976,0.0304713563721
3293.875,0.111546624793,0.0305155909154
3295.804,0.110057759489,0.0313564727966
3297.732,0.10857951173,0.0314035571069
3299.661,0.107110348063,0.0320970713245
3301.589,0.105651791728,0.0334033482705
3303.518,0.104202329698,0.0329205854945
3305.447,0.102762721041,0.0329928637157
3307.375,0.101333704394,0.0321498193095
3309.303,0.0999145309063,0.0326037648584
3311.232,0.0985044721512,0.0344272977871
3313.16,0.0971049900871,0.0333523029483
3315.089,0.0957146329692,0.0325666265072
3317.017,0.094334842329,0.0346373096977
3318.946,0.0929641868482,0.0354175477115
3320.875,0.0916033847401,0.0344803108022
3322.803,0.0902531337882,0.0344932020048
3324.731,0.0889127259955,0.0358991611974
3326.66,0.0875814737892,0.0359544101692
3328.588,0.0862607574203,0.0370130220197
3330.517,0.0849492068511,0.0380116240394
3332.445,0.083648181906,0.0377548303248
3334.374,0.082356332974,0.0369903768208
3336.302,0.0810749994527,0.0377647357136
3338.231,0.0798028521579,0.0383006048319
3340.159,0.0785412100604,0.0390781167363
3342.088,0.0772887644028,0.0389541346167
3344.016,0.0760468137291,0.0390947510137
3345.945,0.0748140697086,0.038986546889
3347.873,0.0735918104587,0.0383893883688
3349.802,0.0723787680754,0.0369343826372
3351.73,0.0711762002493,0.0378953655043
3353.659,0.0699828595032,0.0401141788067
3355.587,0.0687999831009,0.0412965498012
3357.516,0.067626343992,0.0410565631141
3359.444,0.0664631590134,0.0422905051936
3361.373,0.0653092215417,0.0450951047496
3363.302,0.0641651374426,0.0453137870494
3365.23,0.0630314921524,0.0443206760473
3367.158,0.0619076900214,0.0449891056927
3369.087,0.0607931558241,0.0445990406785
3371.015,0.0596890451169,0.0437174038874
3372.944,0.0585942125568,0.0430139952669
3374.872,0.0575097932734,0.0432680294295
3376.801,0.0564346623504,0.0429922051316
3378.729,0.0553699344908,0.0423779680666
3380.658,0.054314505205,0.0407072273331
3382.586,0.0532694687692,0.0403275189999
3384.515,0.0522337411206,0.0413890224496
3386.443,0.0512083961086,0.0437516766701
3388.372,0.0501923700972,0.043780135715
3390.3,0.0491867165089,0.0418796940844
3392.229,0.0481903921347,0.0410065147691
3394.157,0.0472044299703,0.0420470609829
3396.086,0.0462278072332,0.0422686043709
3398.014,0.0452615364926,0.0428219568866
3399.943,0.0443046153927,0.0417294490973
3401.871,0.0433580360759,0.0418036944407
3403.8,0.0424208166132,0.0439094168852
3405.728,0.0414939287201,0.0451395494968
3407.657,0.0405764108946,0.0443164426382
3409.585,0.0396692144253,0.0410636269777
3411.514,0.0387713982371,0.0392332515153
3413.442,0.0378838931916,0.0410183609275
3415.371,0.0370057786404,0.0388786851218
3417.299,0.0361379650187,0.0378497030294
3419.228,0.0352795521048,0.0380227828795
3421.156,0.0344314299069,0.0371039991844
3423.085,0.0335927186302,0.0332924527031
3425.013,0.032764287856,0.033575042984
3426.942,0.0319452782165,0.0348079816643
3428.87,0.0311365388661,0.0333388477709
3430.799,0.0303372308638,0.0307291797296
3432.727,0.0295481829372,0.0284372613163
3434.656,0.028768576572,0.0250144012911
3436.584,0.0279992200693,0.0224874877039
3438.513,0.0272393153413,0.0210246086454
3440.441,0.0264896502623,0.0211536328672
3442.37,0.0257494471715,0.0212671302064
3444.298,0.0250194735163,0.0211985594363
3446.227,0.0242989720627,0.0216623136949
3448.155,0.0235886898313,0.022258373749
3450.084,0.0228878900149,0.0215773884649
3452.012,0.0221972992073,0.023397060441
3453.941,0.021516201028,0.0236591755009
3455.869,0.0208453016442,0.0234011352304
3457.798,0.0201839051021,0.021776066595
3459.726,0.0195326971421,0.0206704768193
3461.655,0.0188910022372,0.0186026801645
3463.583,0.018259485701,0.0199528866835
3465.512,0.0176374924333,0.0220754358999
3467.44,0.0170256673209,0.0225002601026
3469.369,0.0164233756903,0.0229817592536
3471.297,0.0158312420017,0.0257233925884
3473.226,0.0152486520084,0.0253866456769
3475.154,0.0146762097435,0.0257129543119
3477.083,0.0141133213873,0.026960670324
3479.011,0.0135605705463,0.0280213560685
3480.94,0.0130173838273,0.0279378370359
3482.868,0.01248432441,0.0313699159619
3484.797,0.0119608393283,0.0340070167316
3486.725,0.0114474713348,0.037013056311
3488.654,0.0109436878902,0.0376184267363
3490.582,0.0104500113205,0.0375081409084
3492.511,0.00996592951309,0.0378496976981
3494.439,0.00949194436718,0.0382680879789
3496.368,0.00902756419696,0.0375776111796
3498.296,0.00857327047485,0.0379571045378
3500.225,0.00812859194181,0.0377043202183
3502.153,0.00769398964349,0.0398780309772
3504.082,0.00726901274763,0.0430357481945
3506.01,0.0068541018731,0.0458685302911
3507.939,0.00644882661443,0.0475939308909
3509.867,0.00605360716369,0.0529568042383
3511.796,0.0056680335422,0.0575367577243
3513.724,0.00529250551525,0.0591459863477
3515.653,0.00492663353095,0.0597650676719
3517.581,0.00457079692779,0.0624978374602
3519.51,0.00422462658068,0.0659618689212
3521.438,0.0038884814013,0.070916936571
3523.367,0.00356201269137,0.0741863952739
3525.295,0.0032455589358,0.0741758501413
3527.224,0.00293879186305,0.0734111525421
3529.152,0.00264202953126,0.075604710588
3531.081,0.0023549640957,0.0753818194887
3533.009,0.0020778931877,0.0714852322545
3534.938,0.00181052938932,0.0675208160064
3536.866,0.00155314990512,0.0670084593135
3538.795,0.00130548774392,0.065737370843
3540.723,0.00106779968351,0.0662949820814
3542.652,0.0008398391595,0.0670920318604
3544.58,0.000621842522879,0.0668470748935
3546.509,0.00041358363605,0.0642831716455
3548.437,0.000215278423219,0.0635500101647
3550.366,2.67211735796e-05,0.0620894215536
3552.294,-0.000151892615463,0.0647708150859
3554.223,-0.000320748227921,0.0675940728009
3556.151,-0.000479670593172,0.0729116932354
3558.08,-0.000628824568444,0.0829572385986
3560.008,-0.000768055509905,0.0955022109734
3561.937,-0.000897507847991,0.105690796032
3563.865,-0.00101704736566,0.110509112462
3565.794,-0.00112679806657,0.107385769056
3567.722,-0.00122664616044,0.110304782216
3569.651,-0.00131669522416,0.119420152214
3571.579,-0.00139685189425,0.125736233275
3573.508,-0.00146719932078,0.122021277962
3575.436,-0.00152766456708,0.106376547616
3577.365,-0.00157831035643,0.0865217046756
3579.293,-0.00161908417893,0.0743078540162
3581.222,-0.0016500283311,0.0661471475063
3583.15,-0.00167111072982,0.0606653490802
3585.079,-0.0016823532448,0.0549073608259
3587.007,-0.00168374421972,0.054818789201
3588.936,-0.00167528509752,0.066666187756
3590.864,-0.00165698464865,0.0763633426796
3592.793,-0.00162882388926,0.0863149656056
3594.721,-0.00159083201661,0.105062478635
3596.65,-0.00154296962003,0.124142838214
3598.578,-0.00148528632359,0.129972044638
3600.507,-0.00141772228983,0.113473216073
3602.435,-0.00134034756959,0.0838891194285
3604.364,-0.00125308189865,0.0601634225435
3606.292,-0.00115601575462,0.0454428852583
3608.221,-0.00104904844649,0.0351125276742
3610.149,-0.000932290878673,0.0321472913841
3612.078,-0.00080562193336,0.0298155279275
3614.006,-0.000669172941752,0.0293465205613
3615.935,-0.000522802359253,0.0285405927161
3617.863,-0.000366661943854,0.0253317888012
3619.792,-0.000200589724169,0.0263124870253
3621.72,-2.47578849795e-05,0.0294905417726
3623.649,0.000161015971884,0.0273619800859
3625.577,0.000356539234865,0.0244807194329
3627.506,0.000562014728917,0.0158288677132
3629.434,0.000777229415689,0.0208410865653
3631.363,0.00100240654693,0.0309424029143
3633.291,0.00123731265749,0.0293863606469
3635.22,0.00148219142591,0.0272659132946
3637.148,0.00173678896026,0.0260202109387
3639.077,0.00200136936587,0.027106080346
3641.005,0.00227565832401,0.0260307199232
3642.934,0.0025599403668,0.0245102102447
3644.862,0.00285392074873,0.0202452402742
3646.791,0.00315790442871,0.0117329274726
3648.719,0.00347157623443,0.0108430907018
3650.648,0.00379526155159,0.0197147960649
3652.576,0.00412862478111,0.0239685146104
3654.505,0.00447201173545,0.0160258150107
3656.433,0.00482506638876,0.0150293761464
3658.362,0.00518815498029,0.0198548046882
3660.29,0.00556090105738,0.020445871408
3662.219,0.0059436912861,0.0181405096641
3664.147,0.00633612878698,0.0154302716982
3666.076,0.00673862065288,0.0135317725544
3668.004,0.00715074957756,0.0106562856999
3669.933,0.00757294308064,0.0102992898113
3671.861,0.00800476342911,0.0132617886784
3673.79,0.00844665856938,0.00513112370091
3675.718,0.00889817034164,-3.28109966465e-05
3677.647,0.00935976711909,0.00743139835144
3679.575,0.00983097031514,0.00806754378574
3681.504,0.0103122687298,0.0100698196155
3683.432,0.0108031633496,0.0090598711192
3685.361,0.0113041634014,0.00650944217827
3687.289,0.0118147494451,0.000575324344479
3689.218,0.0123354511341,-0.00103099343671
3691.146,0.0128657286015,0.00105573101642
3693.075,0.0134061319277,0.00475620507828
3695.003,0.0139561008189,0.00671710245615
3696.932,0.0145162057823,0.00704702074153
3698.86,0.0150858660973,0.00647736042653
