baseline wavenumber (cm-1),baseline absorbance (cm-1),baseline-subtracted absorbance (cm-1)
3199.379,0.127004962606,7.32747196253e-15
3201.308,0.125386080674,0.00136760633197
3203.236,0.123777883689,-0.000390031588358
3205.165,0.122178703395,-0.000414881489228
3207.093,0.120590197833,0.000526038974438
3209.021,0.11901153543,0.00116285472861
3210.95,0.117441905038,0.0020974812767
3212.878,0.115882934059,0.00313712605162
3214.807,0.114333005304,0.0042959874971
3216.736,0.112792929921,0.00429765510726
3218.664,0.111263498631,0.002255058719
3220.593,0.109743124885,0.00325191250913
3222.521,0.108233385018,0.00523100304335
3224.449,0.106733488311,0.00441664798598
3226.378,0.105242664467,0.00438444114533
3228.306,0.103762459184,0.00637733252676
3230.235,0.102291336977,0.00826118975802
3232.164,0.100830068143,0.00861740512153
3234.092,0.099379402548,0.0087505338468
3236.021,0.0979378353513,0.0117738442461
3237.949,0.0965068611798,0.0137695769275
3239.877,0.0950857301674,0.0125053091839
3241.806,0.0936737128725,0.0111368693599
3243.734,0.092272273284,0.0129894866936
3245.663,0.0908799576263,0.0122262141777
3247.592,0.0894974953412,0.0137512640074
3249.52,0.088125595441,0.0162872793755
3251.448,0.0867635387,0.016997557267
3253.377,0.0854106263167,0.0160648751861
3255.305,0.0840682609995,0.0154473607241
3257.234,0.0827350502534,0.0139005127578
3259.162,0.08141237636,0.0132755386467
3261.091,0.080098867251,0.0160107294499
3263.02,0.0787952115146,0.017802957214
3264.948,0.0775020773096,0.0180085119124
3266.876,0.0762187862638,0.0192047826185
3268.805,0.0749446804292,0.0198253622072
3270.733,0.0736810808072,0.0204896048711
3272.662,0.0724266766098,0.021453242311
3274.591,0.071182125785,0.0225241019357
3276.519,0.0699480658513,0.0234205648889
3278.448,0.0687232166637,0.0235679694689
3280.376,0.0675088481539,0.0226805696137
3282.304,0.0663043228032,0.0214002973128
3284.233,0.0651090235174,0.0219357797258
3286.161,0.0639241895905,0.0228267015816
3288.09,0.0627485919418,0.0213308796455
3290.019,0.0615828476658,0.0233752148211
3291.947,0.0604275534273,0.0278184100871
3293.875,0.059282102348,0.0282051416584
3295.804,0.0581459079737,0.0269201436094
3297.732,0.0570201483182,0.0280780553583
3299.661,0.0559036555811,0.0262218773748
3301.589,0.0547975873494,0.0267181042701
3303.518,0.0537007962495,0.029297036979
3305.447,0.0526138585221,0.0326594342716
3307.375,0.0515373299788,0.0319225148524
3309.303,0.0504706445947,0.0311589772687
3311.232,0.0494132567692,0.0313395215911
3313.16,0.0483662628088,0.0330410902351
3315.089,0.0473285766205,0.0336723320257
3317.017,0.0463012740839,0.034190093778
3318.946,0.0452832895327,0.0349858095097
3320.875,0.0442751583541,0.0329314537938
3322.803,0.043277395506,0.0316226534211
3324.731,0.042289475817,0.0333259571878
3326.66,0.0413108945402,0.0347364948496
3328.588,0.0403426662751,0.0331594655485
3330.517,0.0393837866354,0.0318732903199
3332.445,0.038435249794,0.0319635060597
3334.374,0.0374960717916,0.0325126651903
3336.302,0.036567226374,0.0359598582699
3338.231,0.0356477500087,0.0381657678497
3340.159,0.034738596015,0.0370220805769
3342.088,0.0338388212869,0.0356320670895
3344.016,0.0329493587169,0.0369356626014
3345.945,0.032069285626,0.0383144426189
3347.873,0.0311995144798,0.0380798592534
3349.802,0.030339143026,0.0392194646485
3351.73,0.0294890633036,0.0393076795495
3353.659,0.0286483934871,0.0378596095883
3355.587,0.0278180051885,0.0387385755063
3357.516,0.0269970370091,0.0390898435389
3359.444,0.0261863401343,0.0395874069825
3361.373,0.0253850735921,0.0402960615166
3363.302,0.0245936604226,0.0399628503763
3365.23,0.0238125032361,0.0380547645349
3367.158,0.0230411892089,0.0374540229251
3369.087,0.0222793259411,0.0384661133544
3371.015,0.0215277033376,0.0397898335325
3372.944,0.020785541707,0.0401458205632
3374.872,0.0200536105273,0.0403675120001
3376.801,0.0193311505339,0.0403158753975
3378.729,0.018618910778,0.0393663411965
3380.658,0.0179161524218,0.0395805275251
3382.586,0.0172236040897,0.0404687842517
3384.515,0.0165405473706,0.0400439916662
3386.443,0.0158676904623,0.0382530196796
3388.372,0.0152043353805,0.0353380564557
3390.3,0.014551169896,0.0365440981546
3392.229,0.0139075164513,0.0396218747558
3394.157,0.0132740423906,0.0398370221233
3396.086,0.012650090583,0.0371818098853
3398.014,0.0120363079461,0.0372741694426
3399.943,0.0114320577758,0.0381282972951
3401.871,0.0108379665627,0.0375893766959
3403.8,0.0102534180295,0.038028192371
3405.728,0.0096790182402,0.0366650790548
3407.657,0.00911417134424,0.0348754840692
3409.585,0.00855946297869,0.0350635886743
3411.514,0.00801431771993,0.0327720106508
3413.442,0.00747930077817,0.0304360553412
3415.371,0.00695385715658,0.031311327718
3417.299,0.00643853163861,0.0323145263051
3419.228,0.00593278965421,0.0310501557571
3421.156,0.00543715556003,0.0278689183898
3423.085,0.00495111521282,0.0229617945516
3425.013,0.00447517254243,0.021462829834
3426.942,0.00400883383241,0.0205029436192
3428.87,0.00355258258581,0.0180183267593
3430.799,0.00310594551296,0.0160077750434
3432.727,0.00266938569016,0.0148045781038
3434.656,0.0022424502545,0.013200339988
3436.584,0.00182558185548,0.0114878311591
3438.513,0.00141834805701,0.0100480669846
3440.441,0.00102117108178,0.00871217623072
3442.37,0.000633638920494,0.00538299629304
3444.298,0.000256153369058,0.00442686892772
3446.227,-0.000111677155047,0.00656341406705
3448.155,-0.000469471282692,0.0100329716671
3450.084,-0.000817600169611,0.0108001262058
3452.012,-0.00115570287347,0.0103047208367
3453.941,-0.0014841301232,0.00956793525356
3455.869,-0.00180254140326,0.00946382608908
3457.798,-0.00211126701582,0.00845990754143
3459.726,-0.00240998687209,0.00672186217788
3461.655,-0.00269901084745,0.00576394409691
3463.583,-0.00297803927994,0.00703724106927
3465.512,-0.00324736161812,0.00652093399528
3467.44,-0.00350669862681,0.00651047300299
3469.369,-0.00375631932781,0.00566098138135
3471.297,-0.00399596491271,0.00404174669785
3473.226,-0.00422588397652,0.00422588397652
3475.154,-0.00444583813763,0.00603072665374
3477.083,-0.00465605556426,0.00846992290192
3479.011,-0.00485631830158,0.00982591360458
3480.94,-0.00504683409102,0.00967603657931
3482.868,-0.00522740540455,0.0116169350054
3484.797,-0.00539821955681,0.0120428690291
3486.725,-0.00555909944655,0.0139728130133
3488.654,-0.00571021196162,0.0147344658234
3490.582,-0.00585140042757,0.0156735154761
3492.511,-0.00598281130545,0.0181226729117
3494.439,-0.00610430834762,0.0189599035108
3496.368,-0.00621601758832,0.0203045756368
3498.296,-0.00631782320669,0.0228562309791
3500.225,-0.00640983081021,0.0220371461104
3502.153,-0.00649194500478,0.0233637560064
3504.082,-0.00656425097111,0.0262996951593
3506.01,-0.0066266737419,0.0269481946757
3507.939,-0.00667927807105,0.0278367534328
3509.867,-0.00672200941805,0.0328351009117
3511.796,-0.00675491211001,0.0353814585558
3513.724,-0.00677795203321,0.0330493576389
3515.653,-0.006791153088,0.0287415969267
3517.581,-0.00679450158741,0.0303647818698
3519.51,-0.00678800100501,0.0330566107764
3521.438,-0.00677165808063,0.034980926271
3523.367,-0.00674545586104,0.0362037629834
3525.295,-0.00670942151287,0.0350777027738
3527.224,-0.0066635176561,0.0368847380377
3529.152,-0.00660779188414,0.0383495965951
3531.081,-0.00654218639018,0.0376259216247
3533.009,-0.00646676919444,0.0387562079307
3534.938,-0.00638146206329,0.0377786802083
3536.866,-0.00628635344376,0.0383322051248
3538.795,-0.00618134467543,0.0404970642533
3540.723,-0.0060665446321,0.0396735202384
3542.652,-0.00594183422658,0.0375036571105
3544.58,-0.00580734275946,0.0385294368393
3546.509,-0.00566293071677,0.0389095931897
3548.437,-0.00550874782585,0.0404399004085
3550.366,-0.00534463414597,0.041323875077
3552.294,-0.00517075983127,0.0422068260925
3554.223,-0.00498694451421,0.0447720147595
3556.151,-0.00479337877572,0.0503972789644
3558.08,-0.00458986182146,0.0555649090012
3560.008,-0.00437660465918,0.0608419712629
3561.937,-0.00415338606775,0.0650718176048
3563.865,-0.00392043748167,0.0689200880024
3565.794,-0.00367751725305,0.0684133109205
3567.722,-0.00342487724319,0.0650681287984
3569.651,-0.00316225537738,0.0613023266712
3571.579,-0.00288992394373,0.0581887287246
3573.508,-0.00260760044074,0.0563963052705
3575.436,-0.00231557758329,0.0529949652956
3577.365,-0.00201355244312,0.0486470185786
3579.293,-0.00170183816188,0.0433849303545
3581.222,-0.00138011138452,0.041342717102
3583.15,-0.0010487056795,0.0443673608832
3585.079,-0.000707277264954,0.047618928904
3587.007,-0.000356180136137,0.056326334606
3588.936,4.94991559208e-06,0.0665114406624
3590.864,0.0003757384682,0.0720734122972
3592.793,0.000756570157115,0.0795170721159
3594.721,0.00114705013351,0.0961881703879
3596.65,0.00154758345961,0.118700896306
3598.578,0.0019577548598,0.125250604684
3600.507,0.00237798982308,0.107696798742
3602.435,0.00280785264706,0.0801686623456
3604.364,0.00324778924753,0.0589217780971
3606.292,0.0036973434953,0.0472207385624
3608.221,0.00415698173295,0.0389362593379
3610.149,0.00462622740451,0.035249008494
3612.078,0.00510556727935,0.0324197699682
3614.006,0.0055945043747,0.0291336007487
3615.935,0.00609354588672,0.0281683538826
3617.863,0.00660217440586,0.0288158028081
3619.792,0.00712091755507,0.0279014491186
3621.72,0.007649237498,0.0297111455313
3623.649,0.00818768228439,0.0280795295699
3625.577,0.00873569365111,0.0268552758044
3627.506,0.00929384007469,0.0258833459182
3629.434,0.0098615428652,0.0267135602312
3631.363,0.010439390926,0.0266987232839
3633.291,0.0110267851403,0.0238425096106
3635.22,0.0116243348382,0.0228815014657
3637.148,0.0122314204763,0.0231498614137
3639.077,0.0128486718114,0.0233608759624
3641.005,0.0134754488733,0.0225233628971
3642.934,0.0141124018456,0.0217983411473
3644.862,0.0147588703313,0.0197717790012
3646.791,0.0154155249408,0.0162913318426
3648.719,0.0160816848503,0.0155643625391
3650.648,0.016758041097,0.0140688268698
3652.576,0.0174438924302,0.0161948857902
3654.505,0.0181399503141,0.0171871622881
3656.433,0.0188454930711,0.0186808926142
3658.362,0.0195612525922,0.0190656433329
3660.29,0.020286486773,0.0178497402487
3662.219,0.0210219479313,0.0155961411161
3664.147,0.0217668735359,0.0148054337263
3666.076,0.0225220363313,0.0135928025587
3668.004,0.0232866533597,0.0131769658476
3669.933,0.0240615177923,0.0136245799221
3671.861,0.0248458262445,0.0158674609575
3673.79,0.0256403923143,0.0123455586188
3675.718,0.0264443921903,0.00709827922924
3677.647,0.0272586598973,0.00542638937926
3679.575,0.0280823511971,0.00602193341881
3681.504,0.0289163205413,0.00980318739191
3683.432,0.0297597032649,0.00956405433632
3685.361,0.0306133742462,0.0046067976976
3687.289,0.0314764483936,0.00174050834089
3689.218,0.0323498210121,0.00682960164814
3691.146,0.0332325865833,0.00745134435963
3693.075,0.034125660839,0.00324485708931
3695.003,0.0350281178339,0.00253181786188
3696.932,0.0359408937268,0.00157256122529
3698.86,0.0368630421456,0.000650412806545
