wavenumber (/cm),baseline value (/cm),baseline-subtracted absorbance (/cm),
3.199378999999999905e+03,1.362556352976724838e-01,-1.621045183450409155e-03
3.201307999999999993e+03,1.344455172468030923e-01,1.357575849325387551e-03
3.203235999999999876e+03,1.326468865441654543e-01,2.304594300876372515e-03
3.205164999999999964e+03,1.308578773902802084e-01,1.950168702917087771e-03
3.207092999999999847e+03,1.290803446417072564e-01,1.155175422984822120e-03
3.209021000000000186e+03,1.273133581351402199e-01,2.864040025174929838e-03
3.210949999999999818e+03,1.255560095902907847e-01,2.657373609951774185e-03
3.212878000000000156e+03,1.238101210377848815e-01,1.557310479449514062e-03
3.214806999999999789e+03,1.220738813899195918e-01,1.194591267514866217e-03
3.216735999999999876e+03,1.203481989269832297e-01,2.265265138517769117e-03
3.218664000000000215e+03,1.186339600405936778e-01,1.877007310058242950e-03
3.220592999999999847e+03,1.169293864746414613e-01,1.584208996904035160e-03
3.222521000000000186e+03,1.152362455423094900e-01,7.093725715083820660e-04
3.224449000000000069e+03,1.135536508519905396e-01,2.343448106869150394e-03
3.226378000000000156e+03,1.118807378950741338e-01,4.377222278786119247e-03
3.228306000000000040e+03,1.102192411588163168e-01,4.838375337696376732e-03
3.230235000000000127e+03,1.085674370988840565e-01,5.246876051828719412e-03
3.232164000000000215e+03,1.069261902238842765e-01,5.765612060559366370e-03
3.234092000000000098e+03,1.052963431537392580e-01,7.045211480850799290e-03
3.236021000000000186e+03,1.036762051757200709e-01,9.855584978934794904e-03
3.237949000000000069e+03,1.020674560596361857e-01,1.186866038633560549e-02
3.239876999999999953e+03,1.004692531855617688e-01,1.155389449461607931e-02
3.241806000000000040e+03,9.888077581658194504e-02,1.068457342025208590e-02
3.243733999999999924e+03,9.730367089656510871e-02,1.333314301225940746e-02
3.245663000000000011e+03,9.573630242456943051e-02,1.392052563567536261e-02
3.247592000000000098e+03,9.417949113750267998e-02,1.439424786987641980e-02
3.249519999999999982e+03,9.263403588360219487e-02,1.356630779374534690e-02
3.251447999999999865e+03,9.109912687171117796e-02,1.376542382069767534e-02
3.253376999999999953e+03,8.957397619368023811e-02,1.437780789608011922e-02
3.255304999999999836e+03,8.806016513585390726e-02,1.250690248771801905e-02
3.257233999999999924e+03,8.655612335480356023e-02,1.192259897411562797e-02
3.259161999999999807e+03,8.506341025103481002e-02,1.278557387915824073e-02
3.261090999999999894e+03,8.358047736697216124e-02,1.347552182437516954e-02
3.263019999999999982e+03,8.210810166783844011e-02,1.678657133327354778e-02
3.264947999999999865e+03,8.064703823018604112e-02,1.687646323549651939e-02
3.266876000000000204e+03,7.919652103454311032e-02,1.511005937584797287e-02
3.268804999999999836e+03,7.775580594444519988e-02,1.537165791889272271e-02
3.270733000000000175e+03,7.632638670285984972e-02,1.826221129572491719e-02
3.272661999999999807e+03,7.490678050974608482e-02,1.956860612727018278e-02
3.274590999999999894e+03,7.349773150156480028e-02,1.709005784443728970e-02
3.276518999999999778e+03,7.209996192609580135e-02,1.416962262864007727e-02
3.278447999999999865e+03,7.071202181489510963e-02,1.801030710454276651e-02
3.280376000000000204e+03,6.933535019349079676e-02,1.973015066570260601e-02
3.282304000000000087e+03,6.796922481408884664e-02,2.125497411444632334e-02
3.284233000000000175e+03,6.661294531192751833e-02,2.002760861509167434e-02
3.286161000000000058e+03,6.526791788659025428e-02,2.095870699969282214e-02
3.288090000000000146e+03,6.393274728140951879e-02,2.472640565501005305e-02
3.290018999999999778e+03,6.260813386116481638e-02,2.473847485206670527e-02
3.291947000000000116e+03,6.129475610193679813e-02,2.217790133261265950e-02
3.293875000000000000e+03,5.999192458472180078e-02,2.194934702146422723e-02
3.295804000000000087e+03,5.869897177350935635e-02,1.971253130947858700e-02
3.297731999999999971e+03,5.741723821035549236e-02,1.914042882694366732e-02
3.299661000000000058e+03,5.614539429613074617e-02,2.005697101267345239e-02
3.301588999999999942e+03,5.488475868703801552e-02,2.160467828860124229e-02
3.303518000000000029e+03,5.363402366979030944e-02,2.206394459059568547e-02
3.305447000000000116e+03,5.239384583747863644e-02,2.232464198219208384e-02
3.307375000000000000e+03,5.116485989449870431e-02,2.233812201189966373e-02
3.309302999999999884e+03,4.994642019352824036e-02,2.337006621100012893e-02
3.311231999999999971e+03,4.873790297025237805e-02,2.297239724201904920e-02
3.313159999999999854e+03,4.754056122334304746e-02,2.433450195263997529e-02
3.315088999999999942e+03,4.635315289705133068e-02,2.566190825730019220e-02
3.317016999999999825e+03,4.517690910420313344e-02,2.457190318731594658e-02
3.318945999999999913e+03,4.401060967489200948e-02,2.244142711880048324e-02
3.320875000000000000e+03,4.285486743051336589e-02,2.434770004143627098e-02
3.322802999999999884e+03,4.171027330378151987e-02,2.842467059594544487e-02
3.324731000000000222e+03,4.057622541905558933e-02,3.022434063775225610e-02
3.326659999999999854e+03,3.945214378371275643e-02,2.847972723620029178e-02
3.328588000000000193e+03,3.833919385304795924e-02,2.606189782793855159e-02
3.330516999999999825e+03,3.723622111468927187e-02,2.579016117581911516e-02
3.332445000000000164e+03,3.614436913808916074e-02,2.582368908489685033e-02
3.334373999999999796e+03,3.506250529671461891e-02,2.847282271298912093e-02
3.336302000000000135e+03,3.399175127417208842e-02,2.747494234758063314e-02
3.338231000000000222e+03,3.293099632978169211e-02,2.514693756286945359e-02
3.340159000000000106e+03,3.188134026130384768e-02,2.603435770695661233e-02
3.342088000000000193e+03,3.084169421389404420e-02,2.629668645930927084e-02
3.344016000000000076e+03,2.981313609947378040e-02,3.011610679954568326e-02
3.345945000000000164e+03,2.879459894905167516e-02,3.356515036864760049e-02
3.347873000000000047e+03,2.778713878869609744e-02,3.209105791604471847e-02
3.349802000000000135e+03,2.678971053525103230e-02,2.890067660717288156e-02
3.351730000000000018e+03,2.580334832895658792e-02,2.988703881346732594e-02
3.353659000000000106e+03,2.482702897249922103e-02,3.011333289953155301e-02
3.355586999999999989e+03,2.386176472026946271e-02,2.950728410213021569e-02
3.357516000000000076e+03,2.290655426079268864e-02,2.876280791448260210e-02
3.359443999999999960e+03,2.196238796262051096e-02,3.129648194539513817e-02
3.361373000000000047e+03,2.102828640013143513e-02,3.068504625932488850e-02
3.363302000000000135e+03,2.010474202257128695e-02,3.217464744472886551e-02
3.365230000000000018e+03,1.919222539051190779e-02,3.414902599935976113e-02
3.367157999999999902e+03,1.829025500046199681e-02,3.483771427073989457e-02
3.369086999999999989e+03,1.739837123194121205e-02,3.275021868011762649e-02
3.371014999999999873e+03,1.651749879594888171e-02,3.051272459432707862e-02
3.372943999999999960e+03,1.564672392441224247e-02,3.111462248213792137e-02
3.374871999999999844e+03,1.478694944248459819e-02,3.544048409638134167e-02
3.376800999999999931e+03,1.393728346792855177e-02,3.384245978487632200e-02
3.378728999999999814e+03,1.309860694006204085e-02,2.975745290022890899e-02
3.380657999999999902e+03,1.227004986249013996e-02,2.951201826649008098e-02
3.382585999999999785e+03,1.145247128868831510e-02,3.239115551814464311e-02
3.384514999999999873e+03,1.064502310809700703e-02,3.155703895598871433e-02
3.386443000000000211e+03,9.848542488356315516e-03,2.994272406375131368e-02
3.388371999999999844e+03,9.062203204749152974e-03,3.092263455932653393e-02
3.390300000000000182e+03,8.286820539066042102e-03,3.177382840463160996e-02
3.392228999999999814e+03,7.521590152446577804e-03,3.074385005780322366e-02
3.394157000000000153e+03,6.767305440828152996e-03,2.981057791103691734e-02
3.396085999999999785e+03,6.023183951189281515e-03,3.038184991113768163e-02
3.398014000000000124e+03,5.289997193628437344e-03,3.204903040164097661e-02
3.399943000000000211e+03,4.566984600973711395e-03,3.341744883681063705e-02
3.401871000000000095e+03,3.854895797477553288e-03,3.555226077787887462e-02
3.403800000000000182e+03,3.152992101806972869e-03,3.443772860980720552e-02
3.405728000000000065e+03,2.462001252371948112e-03,3.217663212476340462e-02
3.407657000000000153e+03,1.781206453685513225e-03,3.211195032383384884e-02
3.409585000000000036e+03,1.111313558308069105e-03,3.408326846938836141e-02
3.411514000000000124e+03,4.516276566057797481e-04,3.448014228173446050e-02
3.413442000000000007e+03,-1.971672847069783074e-04,3.314571676413691215e-02
3.415371000000000095e+03,-8.357442894286748469e-04,2.792307876835331548e-02
3.417298999999999978e+03,-1.463441276680299552e-03,2.807720858689966015e-02
3.419228000000000065e+03,-2.080909384417850561e-03,3.040548231477280261e-02
3.421155999999999949e+03,-2.687508417604789202e-03,2.923355107402847430e-02
3.423085000000000036e+03,-3.283867628358194679e-03,2.474045309282812966e-02
3.425012999999999920e+03,-3.869368707491105397e-03,2.272259826374289915e-02
3.426942000000000007e+03,-4.444619021256812630e-03,2.204595329801817272e-02
3.428869999999999891e+03,-5.009022146325037284e-03,2.372376994780078796e-02
3.430798999999999978e+03,-5.563163563113704413e-03,2.594474650054423570e-02
3.432726999999999862e+03,-6.106468734117243002e-03,2.451190692273530480e-02
3.434655999999999949e+03,-6.639501253921764601e-03,1.967599170171308032e-02
3.436583999999999833e+03,-7.161708470864169840e-03,1.694185604996056860e-02
3.438512999999999920e+03,-7.673632093684545907e-03,1.472457720639042122e-02
3.440440999999999804e+03,-8.174741356569370510e-03,1.444280968771249896e-02
3.442369999999999891e+03,-8.665556082402048332e-03,1.281293301558728004e-02
3.444297999999999774e+03,-9.145567391225739584e-03,1.349510747006932299e-02
3.446226999999999862e+03,-9.615273220077824590e-03,1.224592115295952688e-02
3.448155000000000200e+03,-1.007418657483682978e-02,1.184867358585472985e-02
3.450083999999999833e+03,-1.052278350670476925e-02,1.431081544848167297e-02
3.452012000000000171e+03,-1.096059890740619380e-02,1.716498584766701363e-02
3.453940999999999804e+03,-1.138808694228998775e-02,1.904552149197158428e-02
3.455869000000000142e+03,-1.180480438892672623e-02,1.895379862727719633e-02
3.457797999999999774e+03,-1.221118352682637465e-02,1.636058209146806774e-02
3.459726000000000113e+03,-1.260680301940553250e-02,1.761640576882417264e-02
3.461655000000000200e+03,-1.299207326032103538e-02,1.544582844075148564e-02
3.463583000000000084e+03,-1.336659479883905988e-02,1.528158519608968646e-02
3.465512000000000171e+03,-1.373075614277041723e-02,1.686933897911924163e-02
3.467440000000000055e+03,-1.408417972722375566e-02,1.595924290320693828e-02
3.469369000000000142e+03,-1.442723217417452020e-02,1.470924976236820392e-02
3.471297000000000025e+03,-1.475955780456672528e-02,1.696060905292395837e-02
3.473226000000000113e+03,-1.508150135453334428e-02,1.601802212679670490e-02
3.475153999999999996e+03,-1.539272903086441602e-02,1.539272903086441602e-02
3.477083000000000084e+03,-1.569356368384688949e-02,1.572237193210312967e-02
3.479010999999999967e+03,-1.598369340611682787e-02,1.827420184642813972e-02
3.480940000000000055e+03,-1.626341916211515581e-02,1.907197066317634082e-02
3.482867999999999938e+03,-1.653245093032396085e-02,1.994344860544772224e-02
3.484797000000000025e+03,-1.679106778934169597e-02,2.070848414434012241e-02
3.486724999999999909e+03,-1.703900160348936765e-02,2.249083623403613785e-02
3.488653999999999996e+03,-1.727650956551940453e-02,2.436889812308540293e-02
3.490581999999999880e+03,-1.750334542560594286e-02,2.389928194637813696e-02
3.492510999999999967e+03,-1.771974449065538693e-02,2.385842840857721470e-02
3.494438999999999851e+03,-1.792548239667723919e-02,2.327623545439494457e-02
3.496367999999999938e+03,-1.812077256474253772e-02,2.229847396977646667e-02
3.498295999999999822e+03,-1.830541251670680936e-02,2.860966805092290954e-02
3.500224999999999909e+03,-1.847959378778796236e-02,3.025711324599078544e-02
3.502152999999999793e+03,-1.864313578569110064e-02,3.285368870189442347e-02
3.504081999999999880e+03,-1.879620815978455539e-02,3.299210424792753393e-02
3.506010000000000218e+03,-1.893865220362656032e-02,3.357576935716966027e-02
3.507938999999999851e+03,-1.907061568074297497e-02,3.572077235718063015e-02
3.509867000000000189e+03,-1.919196177052384655e-02,3.927838651529280689e-02
3.511795999999999822e+03,-1.930281635065256296e-02,4.327026808420142423e-02
3.513724000000000160e+03,-1.940306448636874848e-02,4.197710673846621887e-02
3.515652999999999793e+03,-1.949281016951687207e-02,3.828892863711996775e-02
3.517581000000000131e+03,-1.957196035117192423e-02,3.599569430447235874e-02
3.519510000000000218e+03,-1.964059713733590229e-02,3.605119048616844957e-02
3.521438000000000102e+03,-1.969864936492982110e-02,3.866357405915810119e-02
3.523367000000000189e+03,-1.974617725410965363e-02,3.765429410440757074e-02
3.525295000000000073e+03,-1.978313152764599181e-02,4.061755991135163057e-02
3.527224000000000160e+03,-1.980955051983812609e-02,4.340704369683190400e-02
3.529152000000000044e+03,-1.982540683930977821e-02,4.317929342578485929e-02
3.531081000000000131e+03,-1.983071693452487239e-02,4.191602978199271412e-02
3.533009000000000015e+03,-1.982547529993539115e-02,4.087571284163149521e-02
3.534938000000000102e+03,-1.980967649816278708e-02,4.273598803157008241e-02
3.536865999999999985e+03,-1.978333690951217250e-02,4.440882968217962912e-02
3.538795000000000073e+03,-1.974642921075897561e-02,4.325547601152712751e-02
3.540722999999999956e+03,-1.969899166804722768e-02,4.096150051268487857e-02
3.542652000000000044e+03,-1.964097507230633255e-02,4.094391654607565378e-02
3.544579999999999927e+03,-1.957243957553700398e-02,4.468464012137740582e-02
3.546509000000000015e+03,-1.949331408281551603e-02,4.383325141224014843e-02
3.548436999999999898e+03,-1.940368063197794868e-02,4.284146492390172867e-02
3.550365999999999985e+03,-1.930344624227231520e-02,4.211957886129580331e-02
3.552293999999999869e+03,-1.919271483737716721e-02,4.558460809523623425e-02
3.554222999999999956e+03,-1.907137155068738821e-02,4.959396328221488126e-02
3.556150999999999840e+03,-1.893954219173110687e-02,5.196693529796791999e-02
3.558079999999999927e+03,-1.879709000805718233e-02,5.523345915796107342e-02
3.560007999999999811e+03,-1.864416269503976764e-02,5.679032664935079744e-02
3.561936999999999898e+03,-1.848060161438169757e-02,6.026721841413884562e-02
3.563864999999999782e+03,-1.830657634730314953e-02,6.551672493721527601e-02
3.565793999999999869e+03,-1.812190636966448665e-02,6.122864851057241431e-02
3.567722000000000207e+03,-1.792678314852125254e-02,5.023649708767008448e-02
3.569650999999999840e+03,-1.772100427389844413e-02,4.928018753478990988e-02
3.571579000000000178e+03,-1.750478309869762938e-02,4.622963905745636204e-02
3.573507999999999811e+03,-1.727789532709067544e-02,4.034925891750806848e-02
3.575436000000000149e+03,-1.704057619782517463e-02,4.141690289346855458e-02
3.577364999999999782e+03,-1.679257952923407515e-02,4.212867575889123195e-02
3.579293000000000120e+03,-1.653416244590744100e-02,4.095799748078077229e-02
3.581222000000000207e+03,-1.626505688033574870e-02,4.273528835713746865e-02
3.583150000000000091e+03,-1.598554184294442848e-02,4.674163200770764526e-02
3.585079000000000178e+03,-1.569532738039214337e-02,4.890011864694443489e-02
3.587007000000000062e+03,-1.539471438893968980e-02,5.669209637620342690e-02
3.588936000000000149e+03,-1.508339102939970644e-02,6.351308879549688591e-02
3.590864000000000033e+03,-1.476168008388967223e-02,6.878826453754371961e-02
3.592793000000000120e+03,-1.442924782736554334e-02,7.613651559245182554e-02
3.594721000000000004e+03,-1.408643892779437579e-02,8.760711010943778021e-02
3.596650000000000091e+03,-1.373289777428610137e-02,1.008566216194290988e-01
3.598577999999999975e+03,-1.336899092065380046e-02,1.105680205375547676e-01
3.600507000000000062e+03,-1.299434087016138051e-02,9.881967191231244563e-02
3.602434999999999945e+03,-1.260933606246794625e-02,7.295705667300067532e-02
3.604364000000000033e+03,-1.221357711499138077e-02,5.418112993011314771e-02
3.606291999999999916e+03,-1.180747435323681316e-02,4.205916746958160424e-02
3.608221000000000004e+03,-1.139060650877610215e-02,3.428204489955755108e-02
3.610148999999999887e+03,-1.096340579296040119e-02,3.827109810065265627e-02
3.612077999999999975e+03,-1.052542905151554464e-02,4.086910639913510224e-02
3.614005999999999858e+03,-1.007713038164226305e-02,3.642100989240737441e-02
3.615934999999999945e+03,-9.618044743213260972e-03,3.161036254367832754e-02
3.617862999999999829e+03,-9.148648119271740597e-03,3.406576122955184971e-02
3.619791999999999916e+03,-8.668453583865698420e-03,3.160992735319778646e-02
3.621719999999999800e+03,-8.177959005863044695e-03,2.931057802941516854e-02
3.623648999999999887e+03,-7.676655573469304272e-03,2.830689918005968586e-02
3.625577000000000226e+03,-7.165063041409069911e-03,2.707611125731923529e-02
3.627505999999999858e+03,-6.642650712031183957e-03,2.306992252038031488e-02
3.629434000000000196e+03,-6.109960225906263531e-03,1.945474947082703743e-02
3.631362999999999829e+03,-5.566438999544232047e-03,2.618657444885164054e-02
3.633291000000000167e+03,-5.012650559361730984e-03,2.840595895924025172e-02
3.635219999999999800e+03,-4.448020436019106683e-03,2.704430063413898466e-02
3.637148000000000138e+03,-3.873134041768366842e-03,2.590234661631596325e-02
3.639077000000000226e+03,-3.287395021445149723e-03,2.676207408745145955e-02
3.641005000000000109e+03,-2.691410673136829246e-03,3.262520224293363746e-02
3.642934000000000196e+03,-2.084562755822361169e-03,2.978596778968478631e-02
3.644862000000000080e+03,-1.467480453456460054e-03,2.378224847124688068e-02
3.646791000000000167e+03,-8.395236391613991600e-04,2.048624354212291721e-02
3.648719000000000051e+03,-2.013433827308119817e-04,1.231849692564002119e-02
3.650648000000000138e+03,4.477223285483944437e-04,1.444462579638838839e-02
3.652576000000000022e+03,1.107000539040114973e-03,2.593585804783926640e-02
3.654505000000000109e+03,1.777175147303466929e-03,2.763604632242255832e-02
3.656432999999999993e+03,2.457551311856320808e-03,2.074572373110328272e-02
3.658362000000000080e+03,3.148834817103818295e-03,1.860189802429923489e-02
3.660289999999999964e+03,3.850308935714252812e-03,2.052247990488020868e-02
3.662219000000000051e+03,4.562701337945895830e-03,1.968323012874773070e-02
3.664146999999999935e+03,5.285273410621016410e-03,1.657968160807898883e-02
3.666076000000000022e+03,6.018774709833252246e-03,1.284051974078836977e-02
3.668003999999999905e+03,6.762444736569506176e-03,1.086264370980649652e-02
3.669932999999999993e+03,7.517054932769440256e-03,6.085997730729930666e-03
3.671860999999999876e+03,8.281822913566827538e-03,1.271029272375234775e-02
3.673789999999999964e+03,9.057542006747354435e-03,9.614751534140042466e-03
3.675717999999999847e+03,9.843407941605875067e-03,-4.097931341989990983e-03
3.677646999999999935e+03,1.064023593177054750e-02,1.114132678934520726e-02
3.679574999999999818e+03,1.144719982069020148e-02,1.645333591164566123e-02
3.681503999999999905e+03,1.226513670783901944e-02,1.420054609818532931e-02
3.683431999999999789e+03,1.309319855081980677e-02,1.307732606254319307e-02
3.685360999999999876e+03,1.393224433495277026e-02,9.013272697292018520e-03
3.687289000000000215e+03,1.478140413199469094e-02,3.630098950993421170e-03
3.689217999999999847e+03,1.564155881311179996e-02,9.034730275836455604e-04
3.691146000000000186e+03,1.651181656421840671e-02,5.555301600140172269e-03
3.693074999999999818e+03,1.739308014231610855e-02,5.046018210054237230e-03
3.695003000000000156e+03,1.828443584748029593e-02,5.451539084289747095e-03
3.696931999999999789e+03,1.918680832256214330e-02,4.107945543808000366e-03
3.698860000000000127e+03,2.009926198179101675e-02,2.826544143752274252e-03
