baseline wavenumber (cm-1),baseline absorbance (cm-1),baseline-subtracted absorbance (cm-1)
3199.379,0.156774992419,5.3290705182e-15
3201.308,0.155363735794,-0.000326841019764
3203.236,0.15396024342,-0.00106728880591
3205.165,0.152563059393,-0.000671823165609
3207.093,0.151173632322,0.000351183203736
3209.021,0.14979123608,-0.000623137423932
3210.95,0.148415159125,-0.00197626293597
3212.878,0.147046828185,-0.00113759943746
3214.807,0.145684823829,-2.0212487343e-05
3216.736,0.144329857596,0.00030574333433
3218.664,0.142982626433,0.000153934772001
3220.593,0.141641732798,0.00105006948664
3222.521,0.140308566938,8.96944591642e-05
3224.449,0.138982431906,0.000615768842235
3226.378,0.137662645343,0.00167880820964
3228.306,0.136350575614,0.00285542863136
3230.235,0.13504486165,0.00381797065601
3232.164,0.133746185809,0.00312432869666
3234.092,0.132455215857,0.00252456782879
3236.021,0.131170612614,0.00418367829925
3237.949,0.129893707964,0.00401006237835
3239.877,0.128623834143,0.00433633971717
3241.806,0.127360337973,0.00424332118024
3243.734,0.126104529454,0.00309288285752
3245.663,0.124855105882,0.00306514075727
3247.592,0.123612720433,0.00471892820785
3249.52,0.122378011692,0.0059708208163
3251.448,0.121150333778,0.00725106114723
3253.377,0.119929055402,0.00665135498918
3255.305,0.118715442792,0.00528890371598
3257.234,0.117508237013,0.00483837170007
3259.162,0.116308689706,0.00546478648977
3261.091,0.115115556525,0.00650831894248
3263.02,0.113929461468,0.00651226500545
3264.948,0.112751013938,0.00653535015825
3266.876,0.111579597235,0.00645234454167
3268.805,0.110414609251,0.00629518555358
3270.733,0.109257257851,0.00770877874022
3272.662,0.108106342465,0.00680116789608
3274.591,0.106962465202,0.00783587706066
3276.519,0.105826213579,0.00819582220345
3278.448,0.104696408914,0.00806867751057
3280.376,0.103574222595,0.0097811802153
3282.304,0.102459067103,0.0109928686088
3284.233,0.101350369511,0.0084676836581
3286.161,0.100249279322,0.00734801169174
3288.09,0.0991546543275,0.00809744311509
3290.019,0.0980670674563,0.00980112217277
3291.947,0.096987077045,0.0111161272409
3293.875,0.0959141174617,0.011705916906
3295.804,0.0948476376631,0.0100340968967
3297.732,0.0937887433825,0.0101878056926
3299.661,0.0927363361819,0.0116435283688
3301.589,0.0916915072041,0.0119570321672
3303.518,0.0906531726014,0.012269095669
3305.447,0.0896218761221,0.0131533184599
3307.375,0.0885981469217,0.0131586508141
3309.303,0.0875814485492,0.0136911684527
3311.232,0.0865712591426,0.0115177937231
3313.16,0.0855686260728,0.0107338099931
3315.089,0.0845725092642,0.0123404595016
3317.017,0.0835839414972,0.014179628704
3318.946,0.0826018972865,0.0127129718129
3320.875,0.0816268911991,0.0118432391961
3322.803,0.0806594232095,0.0111595396936
3324.731,0.0796989860479,0.0127840827887
3326.66,0.0787450870332,0.013597983825
3328.588,0.0777987151743,0.0141981512969
3330.517,0.0768588887576,0.0138320037927
3332.445,0.0759265822014,0.0152479856749
3334.374,0.0750008283827,0.0142132623886
3336.302,0.0740825871292,0.0135081335824
3338.231,0.0731709059085,0.0134302262051
3340.159,0.0722667299577,0.0128176731556
3342.088,0.071369121335,0.0124588378281
3344.016,0.0704790106869,0.0148217069923
3345.945,0.0695954746622,0.0160110147748
3347.873,0.0687194293168,0.0138601724218
3349.802,0.06784996589,0.0138820668604
3351.73,0.0669879858474,0.0155324831711
3353.659,0.0661325950186,0.0153780690873
3355.587,0.0652846802787,0.0155911915499
3357.516,0.0644433620479,0.0157406064146
3359.444,0.0636095126107,0.0153554120836
3361.373,0.0627822669779,0.0147467939743
3363.302,0.0619620594684,0.0137161978853
3365.23,0.0611493098085,0.0121317980455
3367.158,0.0603435909767,0.0138164211531
3369.087,0.0595444905399,0.0146589866662
3371.015,0.0587528370108,0.015176709133
3372.944,0.057967809172,0.0133563594321
3374.872,0.0571902209455,0.0119465424225
3376.801,0.0564192657047,0.0129161229539
3378.729,0.055655742781,0.0142815866438
3380.658,0.0548988601382,0.0134772643943
3382.586,0.0541494025172,0.0125735328917
3384.515,0.0534065924723,0.0116939836926
3386.443,0.052671200154,0.0119628845523
3388.372,0.0519424627072,0.0126117675566
3390.3,0.0512211356916,0.0127114428993
3392.229,0.0505064708427,0.0119432410748
3394.157,0.0497992091298,0.013363633284
3396.086,0.049098616879,0.0132889298713
3398.014,0.0484054204688,0.0126377413628
3399.943,0.0477189008159,0.0123498346536
3401.871,0.0470397697084,0.0136298957116
3403.8,0.0463673226535,0.014218445061
3405.728,0.0457022568488,0.0141168071359
3407.657,0.0450438823919,0.013163435914
3409.585,0.0443928818898,0.0117655129348
3411.514,0.0437485800309,0.00975642350696
3413.442,0.0431116448315,0.00872803979394
3415.371,0.0424814155706,0.0070263171697
3417.299,0.041858545674,0.00592321921028
3419.228,0.041242389011,0.00492207070795
3421.156,0.0406335844171,0.0034344434814
3423.085,0.0400315003522,0.00212103174124
3425.013,0.0394367610609,0.00132286695888
3426.942,0.038848749594,-0.00119131504429
3428.87,0.0382680756055,-0.00336460850751
3430.799,0.0376941367365,-0.00442667489478
3432.727,0.0371275280507,-0.00577303497477
3434.656,0.0365676617797,-0.00825016455943
3436.584,0.0360151183966,-0.011541753391
3438.513,0.0354693247236,-0.0127603385718
3440.441,0.0349308466432,-0.0128278445205
3442.37,0.0343991255682,-0.0122324420546
3444.298,0.0338747127905,-0.00980314703695
3446.227,0.0333570643135,-0.0110367368092
3448.155,0.0328467168385,-0.0128290275633
3450.084,0.0323431409595,-0.0140443438302
3452.012,0.0318468587872,-0.0143602520956
3453.941,0.0313573555062,-0.0137595590845
3455.869,0.0308751386366,-0.012157358388
3457.798,0.0303997079536,-0.0121797544511
3459.726,0.0299315563867,-0.0121563618047
3461.655,0.0294701983016,-0.0130353453753
3463.583,0.0290161120375,-0.0122451628815
3465.512,0.0285688265504,-0.0123710099124
3467.44,0.028128805589,-0.0101984507927
3469.369,0.0276955926999,-0.0112263720388
3471.297,0.0272696370412,-0.0126224117303
3473.226,0.0268504967501,-0.0137862088698
3475.154,0.0264386063941,-0.0139990026338
3477.083,0.026033538701,-0.0126397248932
3479.011,0.0256357136476,-0.0114691312156
3480.94,0.0252447185525,-0.0109315678399
3482.868,0.0248609588019,-0.00760481809636
3484.797,0.0244840363048,-0.00515673417196
3486.725,0.0241143418569,-0.00472083129386
3488.654,0.0237514919577,-0.00476685635681
3490.582,0.0233958628125,-0.00438090273977
3492.511,0.0230470855114,-0.00342866844883
3494.439,0.0227055216689,-0.000319996550142
3496.368,0.0223708169658,0.00165829452722
3498.296,0.022043318426,0.00411659262224
3500.225,0.0217226863208,0.00387672740607
3502.153,0.0214092530837,0.00201892845877
3504.082,0.0211026935765,0.0034990450265
3506.01,0.0208033256422,0.00661050231698
3507.939,0.020510838733,0.0064147652294
3509.867,0.0202255361013,0.0106301194127
3511.796,0.0199471217901,0.0150493403548
3513.724,0.0196758844612,0.0160084377869
3515.653,0.019411542748,0.013040190801
3517.581,0.0191543707217,0.0134939664864
3519.51,0.0189041016065,0.0152761268379
3521.438,0.018660994883,0.0143087817268
3523.367,0.0184247983657,0.0146784059201
3525.295,0.0181957569449,0.0172939832754
3527.224,0.0179736330257,0.0151644444028
3529.152,0.0177586569075,0.016982574266
3531.081,0.0175506055863,0.019405322848
3533.009,0.0173496947709,0.0210709056537
3534.938,0.0171557160476,0.0211991813546
3536.866,0.0169688705349,0.021985946002
3538.795,0.0167889644096,0.0221714116138
3540.723,0.0166161841996,0.0211468805937
3542.652,0.0164503506723,0.0185643061557
3544.58,0.016291635765,0.0174802231251
3546.509,0.0161398748357,0.0187908842869
3548.437,0.0159952252312,0.0221312278164
3550.366,0.0158575368998,0.0212363678813
3552.294,0.015726952598,0.0223772625036
3554.223,0.0156033368647,0.0279683805113
3556.151,0.0154868178655,0.0325633185946
3558.08,0.0153772747302,0.0371522916299
3560.008,0.0152748210337,0.0423907000418
3561.937,0.0151793504963,0.0469711599656
3563.865,0.0150909621026,0.051249884961
3565.794,0.0150095641632,0.0470540161461
3567.722,0.0149352410722,0.0384444213153
3569.651,0.0148679157308,0.0375418689654
3571.579,0.0148076579425,0.0379038552486
3573.508,0.0147544051991,0.035326965467
3575.436,0.0147082127135,0.0323963056328
3577.365,0.0146690325681,0.0295966098053
3579.293,0.0146369053852,0.0299895982032
3581.222,0.0146117978378,0.031133173354
3583.15,0.0145937359576,0.0322282593927
3585.079,0.0145827010082,0.0316878943623
3587.007,0.0145787044307,0.0337645685907
3588.936,0.0145817420792,0.0481636334388
3590.864,0.0145918108044,0.0588495113425
3592.793,0.014608921051,0.0666182092431
3594.721,0.0146330550789,0.0854710589411
3596.65,0.0146642379235,0.106382967171
3598.578,0.0147024372541,0.114654683943
3600.507,0.0147476926966,0.0991196882798
3602.435,0.01479995733,0.0690537776342
3604.364,0.0148592853705,0.0457204174497
3606.292,0.0149256153065,0.0309209428659
3608.221,0.014999015945,0.0201788876231
3610.149,0.0150794111838,0.0188905675891
3612.078,0.0151668844203,0.0157003954746
3614.006,0.0152613449617,0.0137460339931
3615.935,0.0153628907962,0.0150085839839
3617.863,0.0154714166404,0.0107031512359
3619.792,0.0155870350729,0.0064204449635
3621.72,0.0157096262198,0.0147715220669
3623.649,0.0158393172502,0.0200178544874
3625.577,0.0159759736998,0.0185307482248
3627.506,0.0161197373283,0.0114709833833
3629.434,0.0162704590806,0.00609939839443
3631.363,0.016428295307,0.0110497194509
3633.291,0.016593082362,0.0118310559176
3635.22,0.0167649911864,0.0121215952888
3637.148,0.0169438435441,0.0121625953521
3639.077,0.0171298249666,0.0106802427581
3641.005,0.017322742627,0.0115860817943
3642.934,0.0175227966474,0.0129719976516
3644.862,0.0177297796105,0.0126194572236
3646.791,0.0179439062289,0.00356726328488
3648.719,0.0181649544947,-0.00909642118836
3650.648,0.0183931537111,-0.00423213076562
3652.576,0.0186282672797,0.00876483895707
3654.505,0.0188705390941,0.00776041208355
3656.433,0.0191197179653,0.00603291520968
3658.362,0.0193760623777,0.00854822752428
3660.29,0.0196393065516,0.00918107149348
3662.219,0.019909723562,0.00906126602662
3664.147,0.0201870330386,0.00909983646507
3666.076,0.020471522647,0.0082417089309
3668.004,0.0207628974263,0.00367660525232
3669.933,0.0210614596327,-0.0025428100825
3671.861,0.0213668997147,0.00700770859416
3673.79,0.0216795345191,0.000804545133197
3675.718,0.0219990399039,-0.0148424645475
3677.647,0.0223257473062,-0.00337598484787
3679.575,0.0226593179937,0.00206826716757
3681.504,0.023000097994,0.00525978272977
3683.432,0.0233477339842,0.00594974908468
3685.361,0.0237025865825,0.00429195501261
3687.289,0.0240642878754,-0.00236914989901
3689.218,0.0244332130716,-0.00665498604243
3691.146,0.0248089796672,0.0025740184122
3693.075,0.0251919774615,0.00640511138918
3695.003,0.0255818093598,0.00716710401326
3696.932,0.0259788797521,0.00629495022869
3698.86,0.0263827769531,0.00589105302767
