baseline wavenumber (cm-1),baseline absorbance (cm-1),baseline-subtracted absorbance (cm-1)
3199.3790000000004,0.1823167896492386,8.43769498715119e-15
3201.308,0.1804107701849631,0.0011858132578752567
3203.236,0.17851558451939908,0.002190975674677409
3205.165,0.17662926669230927,0.0018474340051535254
3207.093,0.1747537724505328,0.001700791382480249
3209.0209999999997,0.1728881213679685,0.0028437092193154268
3210.95,0.1710313534426433,0.0032125563925939904
3212.8779999999997,0.16918539378386654,0.0025537146766612118
3214.8070000000002,0.1673483274957306,0.0029539064070289722
3216.736,0.1655211145801907,0.0051672509307763015
3218.664,0.1637046946097911,0.004968104338960444
3220.593,0.16189718333144043,0.0034176857679228956
3222.5209999999997,0.16010045478482482,0.002778348409353093
3224.449,0.15831356939742136,0.003288068124058574
3226.3779999999997,0.15653560802083888,0.003462875755568806
3228.3059999999996,0.15476841405722652,0.005268480716855928
3230.235,0.1530101543178226,0.004965181778407102
3232.164,0.15126174795102543,0.004378603812848159
3234.092,0.14952409367578667,0.005451646746734484
3236.0209999999997,0.1477953889461716,0.007097969994493525
3237.949,0.14607742609472396,0.007129386803284898
3239.877,0.14436930640248136,0.007689725236050604
3241.8059999999996,0.14267015157463447,0.00763056610453261
3243.7340000000004,0.14098172330618297,0.007691075642568546
3245.663,0.13930227011552176,0.007989249140517796
3247.592,0.13763267029746373,0.007929848655331195
3249.52,0.13597378171738583,0.008814957795400868
3251.448,0.13432473629651653,0.01023101019089867
3253.377,0.13268468638022313,0.010166319381426758
3255.305,0.13105533238314493,0.011127524182103388
3257.2340000000004,0.1294349841040372,0.012033225741308051
3259.1620000000003,0.1278253215307501,0.012026088557190784
3261.091,0.1262246748888245,0.011775931600612521
3263.02,0.12463388161950917,0.013294451545355024
3264.948,0.12305375873459212,0.013606506099128834
3266.8759999999997,0.12148347900888368,0.013878393021845126
3268.805,0.11992223564132942,0.014428315253242285
3270.7329999999997,0.11837164733941563,0.01602742271011448
3272.6620000000003,0.1168301056090435,0.015922851026962004
3274.591,0.1152984172512781,0.01584077207450796
3276.5190000000002,0.11377736863773436,0.015033912065793409
3278.448,0.11226538191715463,0.0167773755881524
3280.3759999999997,0.11076402472739844,0.018558223326781587
3282.304,0.10927251069685795,0.019417472119274803
3284.2329999999997,0.1077900738780393,0.018626584365162957
3286.1609999999996,0.10631825127128636,0.018876836164274158
3288.09,0.10485551608965693,0.019933223423129975
3290.0190000000002,0.10340263428062713,0.021023222385702534
3291.947,0.10196035136224779,0.02165735812931202
3293.875,0.1005279116030735,0.022958897251672328
3295.804,0.09910457969581188,0.023287515725193053
3297.732,0.09769183136043225,0.023863308637546155
3299.6609999999996,0.0962882010903563,0.022590804266966913
3301.5890000000004,0.09489514417876421,0.02265817635090306
3303.518,0.09351121554587039,0.02396882084349583
3305.447,0.09213714028558684,0.025306001329696626
3307.375,0.09077362306236836,0.024184428084907506
3309.303,0.08941994899835493,0.023622100935942303
3311.232,0.08807542363983245,0.023490835331157367
3313.16,0.08674144099961367,0.02408540626612976
3315.0890000000004,0.08541661727827332,0.02508525273082407
3317.0170000000003,0.08410232606184564,0.026227199865577866
3318.946,0.08279720397769452,0.025830108263283913
3320.875,0.08150193526614302,0.027399308037202807
3322.803,0.08021718373808895,0.029344627643696164
3324.7309999999998,0.07894227536923992,0.0293661245094623
3326.66,0.0776765565594566,0.028180615178135637
3328.5879999999997,0.07642133961439868,0.028129858202239344
3330.5170000000003,0.07517532244180103,0.028792129291748125
3332.445,0.0739397969205342,0.028687313157298666
3334.3740000000003,0.07271348138511868,0.030500912630852195
3336.302,0.07149764728764296,0.03254965888844108
3338.2309999999998,0.07029103338941312,0.032029294114882756
3340.159,0.0690948907157285,0.031817875886919866
3342.0879999999997,0.06790797845468433,0.031834768942465175
3344.0159999999996,0.06673152720478726,0.03260082900667527
3345.945,0.06556431658092876,0.0323589625052938
3347.873,0.06440755675482635,0.0323982655437689
3349.802,0.06326004776815353,0.032019442780719665
3351.73,0.06212297936583511,0.032648070871706514
3353.659,0.060995172016347965,0.03200240202590421
3355.587,0.0598777950378242,0.03187142157998646
3357.5159999999996,0.05876968932551918,0.03327569630068128
3359.4440000000004,0.057672003770782965,0.03439966306435305
3361.373,0.05658359969566362,0.03430136947445672
3363.302,0.0555050489931439,0.035152992045974774
3365.23,0.05443690312678484,0.035334147110756886
3367.158,0.05337860041963438,0.03598458567154106
3369.087,0.05232959961888284,0.035959089353117646
3371.015,0.05129098833552348,0.03622594282792546
3372.9440000000004,0.05026168917195406,0.03620753148911948
3374.8720000000003,0.0492427693123858,0.03636776338750303
3376.801,0.04823317178600206,0.035389086376334866
3378.7290000000003,0.04723394335022135,0.03471996345256856
3380.658,0.046244047461023285,0.03411681375397735
3382.586,0.04526451044903723,0.03549815001795986
3384.515,0.04429431619702484,0.03666899119203815
3386.4429999999998,0.043334470608826337,0.03816153666904687
3388.3720000000003,0.04238397799399607,0.038640989154492544
3390.3,0.041443823829588666,0.03808463063316303
3392.2290000000003,0.04051303285194763,0.03773623430664941
3394.157,0.039592570111327774,0.03895589850284398
3396.086,0.03868148077086886,0.03917255743796577
3398.014,0.03778070945404366,0.038870458038122724
3399.9429999999998,0.03688932175077042,0.03907095319110776
3401.8709999999996,0.03600824185773277,0.04085772397669585
3403.8,0.03513655579164521,0.04084039760974978
3405.728,0.03427516732239866,0.04171341045987176
3407.657,0.03342318289349322,0.04305159725408614
3409.585,0.032581485848041325,0.043923113363522504
3411.514,0.03174920305631801,0.043066828481132635
3413.442,0.030927197434653664,0.04148612511664562
3415.3709999999996,0.03011461628012313,0.0397640858324817
3417.2990000000004,0.029312302082246333,0.04088329076117825
3419.228,0.02851942256489437,0.04256417189583539
3421.156,0.027736799790812228,0.04289496003937088
3423.085,0.02696362191064594,0.04162780637197816
3425.013,0.0262006905603549,0.043410145384252585
3426.942,0.02544721431737429,0.04455986139272383
3428.87,0.02470397439087435,0.044797693455077336
3430.7990000000004,0.02397019978507231,0.044699566716494665
3432.7270000000003,0.023246651282363473,0.044705941459979526
3434.656,0.022532578313754215,0.045308824698476746
3436.5840000000003,0.021828721234829374,0.046748050219734605
3438.513,0.02113434990340579,0.04550519320788515
3440.441,0.020450184248275605,0.04431631731848884
3442.37,0.019775514554030593,0.04318213226695411
3444.298,0.019111040322691508,0.0447088323145266
3446.2270000000003,0.018456072265635726,0.04519196169777273
3448.155,0.017811289458087742,0.04477387176702097
3450.0840000000003,0.017176023038214083,0.04479405681622839
3452.012,0.01655093165445365,0.04526600961715266
3453.941,0.015935366871765666,0.045085557013809785
3455.869,0.015329966911799886,0.045110243337871836
3457.798,0.01473410376629758,0.046334328458508045
3459.7259999999997,0.014148395230115796,0.04775193833907454
3461.655,0.013572233721799165,0.04638581742547676
3463.583,0.013006216609412036,0.04522586668180417
3465.512,0.012449756738277529,0.045728753319339344
3467.44,0.011903431049681501,0.04679362747654903
3469.369,0.01136667281573267,0.04697609479773135
3471.297,0.010840038550927744,0.04787925792132541
3473.2259999999997,0.01032298195416459,0.04656572723415087
3475.1540000000005,0.009816039113147212,0.04642625341692441
3477.083,0.009318684153569734,0.04810525196287596
3479.011,0.008831432736343459,0.04893264287267307
3480.94,0.008353779413948104,0.048066416684303226
3482.868,0.007886219420516483,0.049291077658226046
3484.797,0.007428267735303251,0.050573854977726374
3486.725,0.006980399165662732,0.0504359558328209
3488.6540000000005,0.0065421491176351765,0.04984570087731077
3490.5820000000003,0.006113971971782206,0.04999186043497006
3492.511,0.005695423560940327,0.05011221820596545
3494.4390000000003,0.005286937838882011,0.048567302533098156
3496.368,0.004888091065222255,0.04754746943209898
3498.296,0.004499296766951488,0.051044016687005866
3500.225,0.0041201516304809616,0.05045227331645141
3502.153,0.0037510487559977435,0.04933345543888756
3504.0820000000003,0.003391605256712893,0.04976820470993015
3506.01,0.0030421938060207765,0.052095277133027196
3507.9390000000003,0.0027024519439180494,0.051987733035360195
3509.867,0.0023727319170205874,0.05234878834983503
3511.796,0.0020526916921035365,0.05415169524815733
3513.724,0.0017426630889971761,0.05335841848383205
3515.653,0.0014423245012622488,0.051189839655211955
3517.5809999999997,0.0011519873219434373,0.04964301924835879
3519.51,0.0008713503713941861,0.047766575434731395
3521.438,0.0006007046158664764,0.04861894564189151
3523.367,0.0003397693025029014,0.04772300235422411
3525.295,8.88149707662933e-05,0.04758984670920974
3527.224,-0.00015241870541160552,0.04767187690818142
3529.152,-0.00038368161335711193,0.05003747722641694
3531.0809999999997,-0.0006052136523528873,0.05123545725894374
3533.009,-0.0008167851365108447,0.05230470588855751
3534.938,-0.0010186155383209439,0.05262075846766501
3536.866,-0.001210495598684247,0.05239213918505836
3538.795,-0.00139262436330867,0.05195716494756031
3540.723,-0.001564812999884424,0.05066670322529632
3542.652,-0.0017272401273231708,0.049162295216780505
3544.58,-0.0018797373401078232,0.048794222329494374
3546.509,-0.002022462830360894,0.04753949507538269
3548.437,-0.0021552686193544446,0.049192567719728464
3550.366,-0.0022782924724253917,0.05002973288483825
3552.2940000000003,-0.0023914068376313935,0.04984465661019777
3554.223,-0.0024947290535166644,0.052492707422060025
3556.151,-0.002588151994928012,0.0570862819858311
3558.08,-0.0026717725736311593,0.06063497888112135
3560.008,-0.002745504091251405,0.06254536257704957
3561.937,-0.0028094230327688763,0.06363829192996895
3563.865,-0.0028634631265980204,0.06517974736798049
3565.7940000000003,-0.002907680430933368,0.06131261321168768
3567.722,-0.0029420291009714106,0.054574496502164394
3569.651,-0.002966544768121082,0.05487547027100215
3571.579,-0.002981202014368023,0.054011728649362434
3573.508,-0.0029860160443320183,0.051194850573797135
3575.4359999999997,-0.00298098186679141,0.05076274675105319
3577.365,-0.0029660942595697293,0.04945603664307319
3579.2929999999997,-0.0029413686582344667,0.04840988174829808
3581.222,-0.002906779413834215,0.0491334043001177
3583.15,-0.0028623623887114036,0.05012001931785304
3585.079,-0.0028080715071148177,0.05118874471038981
3587.007,-0.00274396305820801,0.05290063949609336
3588.9359999999997,-0.0026699705394293005,0.0583158817898084
3590.864,-0.0025861706667242856,0.0683276040034273
3592.7929999999997,-0.0024924765107670055,0.07646397150722928
3594.7209999999995,-0.002388985214270889,0.08920188322296396
3596.65,-0.00227558942112438,0.10287550855586658
3598.578,-0.0021524067008407144,0.10785846148705303
3600.507,-0.002019309270512082,0.09410815997302913
3602.435,-0.0018764351264373147,0.07269519586635464
3604.364,-0.001723636058923006,0.05736449323066073
3606.292,-0.0015610704910571371,0.04899410394905779
3608.2209999999995,-0.0013885697863535995,0.043520885565187184
3610.1490000000003,-0.0012063127947001817,0.04219489057697068
3612.078,-0.0010141104528180733,0.03992798895276772
3614.006,-0.0008121620373700011,0.035194553627382996
3615.935,-0.0006002580582986639,0.03227720135153622
3617.863,-0.0003786182190630427,0.02986461842122612
3619.792,-0.00014701260280958195,0.028280541360517164
3621.72,9.431866022069357e-05,0.030456575911699035
3623.6490000000003,0.0003456259136562778,0.02931170755445245
3625.577,0.0006066486004741023,0.028873792115183594
3627.506,0.0008776574910989154,0.028305097992576522
3629.434,0.0011583716017078416,0.02602600118713294
3631.363,0.0014490821295147782,0.027264149448368746
3633.2909999999997,0.001749487663914806,0.02813831179024473
3635.22,0.002059899828907419,0.029188457595534123
3637.1479999999997,0.0023799967870985483,0.029073050822322255
3639.077,0.0027101105892768373,0.02912755240475917
3641.005,0.003049898971255516,0.031074734608042887
3642.934,0.0033997144106159283,0.029215265878477448
3644.862,0.003759194216389261,0.025914817711236715
3646.7909999999997,0.00412871129293535,0.019057379882643666
3648.719,0.004507882522499784,0.010735724068018815
3650.6479999999997,0.004897101236231549,0.011714139034667115
3652.5759999999996,0.005295963889583533,0.022435765616127812
3654.505,0.005704884240497421,0.024714604286744102
3656.433,0.006123438317640506,0.02340349992151869
3658.362,0.006552060305743623,0.023233646759858173
3660.29,0.006990305806674257,0.02221317139943113
3662.219,0.007438629431963051,0.021249331752713152
3664.147,0.00789656635668834,0.020871754678386756
3666.0759999999996,0.008364591619155703,0.01781351411216936
3668.0040000000004,0.008842219967668541,0.013542799743238465
3669.933,0.009329946867325134,0.008653475754730966
3671.861,0.009827266639632626,0.013040417581533958
3673.79,0.010334695176471342,0.01262952194674738
3675.718,0.010851706372566383,0.0045895146928336406
3677.647,0.011378836546590776,0.0065267532643868975
3679.575,0.011915539166476918,0.0104709967680221
3681.5040000000004,0.012462370977686987,0.0135959530898353
3683.4320000000002,0.013018765021364231,0.014017523263281317
3685.361,0.013585298469756424,0.008803259096199278
3687.289,0.01416138393722477,0.002943134409080894
3689.218,0.014747619022802638,-0.0006118664704928278
3691.1459999999997,0.015343395914062086,0.001725238473889057
3693.075,0.01594933263682563,0.0027831044398951565
3695.0029999999997,0.01656480095187618,0.0034725992300708164
3696.9320000000002,0.017190439311821848,0.0032886873433890518
3698.86,0.017825599050659946,0.0026535276045509537
