wavenumber (/cm),baseline value (/cm),baseline-subtracted absorbance (/cm),
3.199378999999999905e+03,2.053058981097706237e-01,-2.219877691292948541e-03
3.201307999999999993e+03,2.032517252242449501e-01,-9.126976289757227079e-04
3.203235999999999876e+03,2.012091662057855501e-01,-1.038392068977156413e-04
3.205164999999999964e+03,1.991761022172404694e-01,-6.508823648196937484e-04
3.207092999999999847e+03,1.971546411528457554e-01,-6.743015187611334227e-04
3.209021000000000186e+03,1.951437263304569569e-01,2.464485406641347964e-04
3.210949999999999818e+03,1.931423229509476869e-01,5.830384156750856306e-04
3.212878000000000156e+03,1.911525060826235745e-01,3.055956054385244869e-04
3.214806999999999789e+03,1.891722116000984499e-01,1.940069382617704008e-04
3.216735999999999876e+03,1.872024743025058058e-01,1.652776885202822399e-03
3.218664000000000215e+03,1.852443071002944919e-01,8.776983581102459908e-04
3.220592999999999847e+03,1.832956786996824405e-01,-3.077074068491558734e-04
3.222521000000000186e+03,1.813586094515322600e-01,-2.180565086540298125e-05
3.224449000000000069e+03,1.794320864453915476e-01,1.172381360127205951e-03
3.226378000000000156e+03,1.775151186538153070e-01,1.363381295643728564e-03
3.228306000000000040e+03,1.756096936017392807e-01,3.033286283027569752e-03
3.230235000000000127e+03,1.737138347071471856e-01,4.309515136176278460e-03
3.232164000000000215e+03,1.718285329974875708e-01,4.047844238942222006e-03
3.234092000000000098e+03,1.699547576115207903e-01,4.851165768646970022e-03
3.236021000000000186e+03,1.680905647988453211e-01,5.503895930963675909e-03
3.237949000000000069e+03,1.662378873669432267e-01,5.061516251777087305e-03
3.239876999999999953e+03,1.643957561770434950e-01,6.330009515870704817e-03
3.241806000000000040e+03,1.625632239734038365e-01,6.886386862540838649e-03
3.243733999999999924e+03,1.607421907375723436e-01,7.784545338440862494e-03
3.245663000000000011e+03,1.589307674309132778e-01,7.620329304151907124e-03
3.247592000000000098e+03,1.571299013091866925e-01,7.141300550713935991e-03
3.249519999999999982e+03,1.553405177394679981e-01,8.861948650908724190e-03
3.251447999999999865e+03,1.535616804117587719e-01,1.028851669730790341e-02
3.253376999999999953e+03,1.517924748990644446e-01,9.533715336455417244e-03
3.255304999999999836e+03,1.500347355254163517e-01,9.956672540893052314e-03
3.257233999999999924e+03,1.482866389097097226e-01,1.127517247207521223e-02
3.259161999999999807e+03,1.465499974901227631e-01,1.209955269687812418e-02
3.261090999999999894e+03,1.448230097714002795e-01,1.250590966658626790e-02
3.263019999999999982e+03,1.431065792376102763e-01,1.355873967475185182e-02
3.264947999999999865e+03,1.414015874841361153e-01,1.395017638930995396e-02
3.266876000000000204e+03,1.397071419726678698e-01,1.431034513943130193e-02
3.268804999999999836e+03,1.380223720479136773e-01,1.471238990498213717e-02
3.270733000000000175e+03,1.363490244905101179e-01,1.680118272671404789e-02
3.272661999999999807e+03,1.346853634627365182e-01,1.783106229284814326e-02
3.274590999999999894e+03,1.330322596198989515e-01,1.716636567071039288e-02
3.276518999999999778e+03,1.313905617286046379e-01,1.567150235711234352e-02
3.278447999999999865e+03,1.297585667827512168e-01,1.721606174246836929e-02
3.280376000000000204e+03,1.281379668455215892e-01,1.931427211131642174e-02
3.282304000000000087e+03,1.265279131502978771e-01,1.989026131649684892e-02
3.284233000000000175e+03,1.249275788134767140e-01,1.907424065483409592e-02
3.286161000000000058e+03,1.233386230723212407e-01,2.032558394273964453e-02
3.288090000000000146e+03,1.217593976324806704e-01,2.182091167713196000e-02
3.290018999999999778e+03,1.201907293775796859e-01,2.261933834707385849e-02
3.291947000000000116e+03,1.186334233025299056e-01,2.282063512261900406e-02
3.293875000000000000e+03,1.170866634694931463e-01,2.372148370527660255e-02
3.295804000000000087e+03,1.155496558236244198e-01,2.496687101353312066e-02
3.297731999999999971e+03,1.140239939446487938e-01,2.623528028965815828e-02
3.299661000000000058e+03,1.125080951957642128e-01,2.549251129367258173e-02
3.301588999999999942e+03,1.110035312708497202e-01,2.564561458985958886e-02
3.303518000000000029e+03,1.095087414189457320e-01,2.642980098477387685e-02
3.305447000000000116e+03,1.080245087519742242e-01,2.806312897166862719e-02
3.307375000000000000e+03,1.065515944931760828e-01,2.727889170918884609e-02
3.309302999999999884e+03,1.050892264763838568e-01,2.718763595159545687e-02
3.311231999999999971e+03,1.036366544184481597e-01,2.744694004228165340e-02
3.313159999999999854e+03,1.021953843557170671e-01,2.739826772150921741e-02
3.315088999999999942e+03,1.007639211947690683e-01,2.776938518347793483e-02
3.317016999999999825e+03,9.934374908609910904e-02,2.913901650573325064e-02
3.318945999999999913e+03,9.793339482212815028e-02,2.910996917261554628e-02
3.320875000000000000e+03,9.653359774309322461e-02,2.981483043844912473e-02
3.322802999999999884e+03,9.514507530053961659e-02,3.193872132333575031e-02
3.324731000000000222e+03,9.376709909999192405e-02,3.308774776142509033e-02
3.326659999999999854e+03,9.239896262999280907e-02,3.259295084418067923e-02
3.328588000000000193e+03,9.104208438350624988e-02,3.206516316526530908e-02
3.330516999999999825e+03,8.969505681049128043e-02,3.255249196136777989e-02
3.332445000000000164e+03,8.835927651806585459e-02,3.342076997945753192e-02
3.334373999999999796e+03,8.703335784203147796e-02,3.497361678649357764e-02
3.336302000000000135e+03,8.571867550367073818e-02,3.561661207340383051e-02
3.338231000000000222e+03,8.441386572462050708e-02,3.462788096495783563e-02
3.340159000000000106e+03,8.312028134032090065e-02,3.588810843022405273e-02
3.342088000000000193e+03,8.183658045825481508e-02,3.657441721686893743e-02
3.344016000000000076e+03,8.056409402801634201e-02,3.739203656937561959e-02
3.345945000000000164e+03,7.930150204293084926e-02,3.736533309302370043e-02
3.347873000000000047e+03,7.805011356675350953e-02,3.748157550632824631e-02
3.349802000000000135e+03,7.680863047865571502e-02,3.715578880770853409e-02
3.351730000000000018e+03,7.557833995653950865e-02,3.770984360759666032e-02
3.353659000000000106e+03,7.435796576542230696e-02,3.683934546474021410e-02
3.355586999999999989e+03,7.314877319736723393e-02,3.619672361856318688e-02
3.357516000000000076e+03,7.194950790323773049e-02,3.711397132449900660e-02
3.359443999999999960e+03,7.076141328924023810e-02,3.907938323355342192e-02
3.361373000000000047e+03,6.958325689209488019e-02,3.996844633240725919e-02
3.363302000000000135e+03,6.841565767987844993e-02,4.056544006600226737e-02
3.365230000000000018e+03,6.725921273199730877e-02,4.055338203197700331e-02
3.367157999999999902e+03,6.611331402612563579e-02,4.218042902451624165e-02
3.369086999999999989e+03,6.497737542294501623e-02,4.230454108367553978e-02
3.371014999999999873e+03,6.385257467113447660e-02,4.184236114206663082e-02
3.372943999999999960e+03,6.273774496493800257e-02,4.086834014574614038e-02
3.374871999999999844e+03,6.163404216718859630e-02,4.084094014353611968e-02
3.376800999999999931e+03,6.054032135797626779e-02,4.127661991363007488e-02
3.378728999999999814e+03,5.945771651428799487e-02,4.180125447530058658e-02
3.380657999999999902e+03,5.838510460205981190e-02,4.051462247769355152e-02
3.382585999999999785e+03,5.732359771243267232e-02,4.125923863650093892e-02
3.384514999999999873e+03,5.627209469718508217e-02,4.196554808053631902e-02
3.386443000000000211e+03,5.523168576162262866e-02,4.341432657032928688e-02
3.388371999999999844e+03,5.420129164335918404e-02,4.457511591754226288e-02
3.390300000000000182e+03,5.318198066185431117e-02,4.531796879735927597e-02
3.392228999999999814e+03,5.217269544057501207e-02,4.459976993898639996e-02
3.394157000000000153e+03,5.117448241313482526e-02,4.491264990264398627e-02
3.396085999999999785e+03,5.018630608883967170e-02,4.535448032579680877e-02
3.398014000000000124e+03,4.920919101545706553e-02,4.535868526069775086e-02
3.399943000000000211e+03,4.824212358814605750e-02,4.531898022262903503e-02
3.401871000000000095e+03,4.728610646882458468e-02,4.801511661820634380e-02
3.403800000000000182e+03,4.634014793849772218e-02,4.926431986702106691e-02
3.405728000000000065e+03,4.540522877324093542e-02,4.978581539940640788e-02
3.407657000000000153e+03,4.448037913989821845e-02,5.060907805205538956e-02
3.409585000000000036e+03,4.356655792869901234e-02,5.168968385842287461e-02
3.411514000000000124e+03,4.266281719233688818e-02,5.108579293603665583e-02
3.413442000000000007e+03,4.177009393520236813e-02,5.032128380663491996e-02
3.415371000000000095e+03,4.088746209582794222e-02,4.874611720266575077e-02
3.417298999999999978e+03,4.001583679275100280e-02,4.908403180120424203e-02
3.419228000000000065e+03,3.915431385035716971e-02,5.075521814196060078e-02
3.421155999999999949e+03,3.830378650134491636e-02,5.116502983343695909e-02
3.423085000000000036e+03,3.746337245593522880e-02,5.059636675360690283e-02
3.425012999999999920e+03,3.663394306098410880e-02,5.317248572704791343e-02
3.426942000000000007e+03,3.581463791255501405e-02,5.395085283848111146e-02
3.428869999999999891e+03,3.500630647166858012e-02,5.407435662344917127e-02
3.430798999999999978e+03,3.420811022022363090e-02,5.421754428296021722e-02
3.432726999999999862e+03,3.342087673339477760e-02,5.471012498499172594e-02
3.434655999999999949e+03,3.264378937893752664e-02,5.540533626545740553e-02
3.436583999999999833e+03,3.187765384616980668e-02,5.579393212370753474e-02
3.438512999999999920e+03,3.112167538869314853e-02,5.475773429492125643e-02
3.440440999999999804e+03,3.037663780998656193e-02,5.467491379215627667e-02
3.442369999999999891e+03,2.964176824949404931e-02,5.372930220436189508e-02
3.444297999999999774e+03,2.891782862485214878e-02,5.568239375460803942e-02
3.446226999999999862e+03,2.820406796134378169e-02,5.530700047088110693e-02
3.448155000000000200e+03,2.750122629075946179e-02,5.397355385681956719e-02
3.450083999999999833e+03,2.680857452423524023e-02,5.498966665639715146e-02
3.452012000000000171e+03,2.612683080771205368e-02,5.557993154951001991e-02
3.453940999999999804e+03,2.545528793816842494e-02,5.566065262586650242e-02
3.455869000000000142e+03,2.479464217570992446e-02,5.645624228805190548e-02
3.457797999999999774e+03,2.414420820315399396e-02,5.768435744932753906e-02
3.459726000000000113e+03,2.350466039475307412e-02,5.869891789292513984e-02
3.461655000000000200e+03,2.287533531917773644e-02,5.727729785579427357e-02
3.463583000000000084e+03,2.225688546484150265e-02,5.646746508605282600e-02
3.465512000000000171e+03,2.164866928625386322e-02,5.759524054898301770e-02
3.467440000000000055e+03,2.105131738597521007e-02,5.875814384924127332e-02
3.469369000000000142e+03,2.046421010436816346e-02,5.864576664687004559e-02
3.471297000000000025e+03,1.988795615815419637e-02,5.961169005634081586e-02
3.473226000000000113e+03,1.932195777353129529e-02,5.782703646481901494e-02
3.475153999999999996e+03,1.876680178137490884e-02,5.675174668723914628e-02
3.477083000000000084e+03,1.822191229373615329e-02,5.954266872314462056e-02
3.479010999999999967e+03,1.768785425564445291e-02,6.086718466076113110e-02
3.480940000000000055e+03,1.716407366498984288e-02,5.903728082808590294e-02
3.482867999999999938e+03,1.665111358095572314e-02,5.973269315107687660e-02
3.484797000000000025e+03,1.614844188728525864e-02,6.135686489528802134e-02
3.486724999999999909e+03,1.565657975731582496e-02,6.083235181045942852e-02
3.488653999999999996e+03,1.517501696062595329e-02,5.982144518432508384e-02
3.490581999999999880e+03,1.470425278471765296e-02,6.002232156077891290e-02
3.492510999999999967e+03,1.424379888501192681e-02,6.013657107354464237e-02
3.494438999999999851e+03,1.379413266316831255e-02,5.865507384648482869e-02
3.496367999999999938e+03,1.335478766044317922e-02,5.699444917368201580e-02
3.498295999999999822e+03,1.292621939265714559e-02,6.044282942974232853e-02
3.500224999999999909e+03,1.250798328691971051e-02,5.937365019129714483e-02
3.502152999999999793e+03,1.210051297319836294e-02,5.736476550653435424e-02
3.504081999999999880e+03,1.170338576443796796e-02,5.733229603077050207e-02
3.506010000000000218e+03,1.131701340477775375e-02,6.057927690149922384e-02
3.507938999999999851e+03,1.094099509300860973e-02,6.028512438541033802e-02
3.509867000000000189e+03,1.057572068740597615e-02,5.927670021626330055e-02
3.511795999999999822e+03,1.022081127261742495e-02,6.184175822096360520e-02
3.513724000000000160e+03,9.876634821079477433e-03,6.169720526787192405e-02
3.515652999999999793e+03,9.542834303275071761e-03,5.983298698450423281e-02
3.517581000000000131e+03,9.219755805794704884e-03,5.862467965362094802e-02
3.519510000000000218e+03,8.907064184974444743e-03,5.645025917497692447e-02
3.521438000000000102e+03,8.605083641558763929e-03,5.583391362923872947e-02
3.523367000000000189e+03,8.313500917722649319e-03,5.356055144253168976e-02
3.525295000000000073e+03,8.032618328364549143e-03,5.399255098326993796e-02
3.527224000000000160e+03,7.762144501512580064e-03,5.475428125407222346e-02
3.529152000000000044e+03,7.502359866219165951e-03,5.714486544460628537e-02
3.531081000000000131e+03,7.252994936347789690e-03,5.917781472705030410e-02
3.533009000000000015e+03,7.014308255115508928e-03,5.974198407279285306e-02
3.534938000000000102e+03,6.786052222228278197e-03,5.948605937182804837e-02
3.536865999999999985e+03,6.568463495060683499e-03,5.881362485023378106e-02
3.538795000000000073e+03,6.361316359154045585e-03,5.891817418971867504e-02
3.540722999999999956e+03,6.164825586044031525e-03,5.878817148259041225e-02
3.542652000000000044e+03,5.978787347125091856e-03,5.765610601181547779e-02
3.544579999999999927e+03,5.803394528079763859e-03,5.669685817585201626e-02
3.546509000000000015e+03,5.638465186141417007e-03,5.369641806464198197e-02
3.548436999999999898e+03,5.484170321153669647e-03,5.389215637448963037e-02
3.550365999999999985e+03,5.340349876203021040e-03,5.519538245979216384e-02
3.552293999999999869e+03,5.207152965279959744e-03,5.589867944147219880e-02
3.554222999999999956e+03,5.084441417306351241e-03,5.954206217108937160e-02
3.556150999999999840e+03,4.972342460444423295e-03,6.434131366004458563e-02
3.558079999999999927e+03,4.870739809458513037e-03,6.718525938188890656e-02
3.560007999999999811e+03,4.779738806657718442e-03,6.883544364558114026e-02
3.561936999999999898e+03,4.699245052652401000e-03,7.024212763510662150e-02
3.563864999999999782e+03,4.629342003912739756e-03,7.036358228598915687e-02
3.565793999999999869e+03,4.569957146895120559e-03,6.320776447445308754e-02
3.567722000000000207e+03,4.521152052213039951e-03,5.403237064059984718e-02
3.569650999999999840e+03,4.482876092179566285e-03,5.762518010917494493e-02
3.571579000000000178e+03,4.455168951562171742e-03,5.956636142345028695e-02
3.573507999999999811e+03,4.438001888512843607e-03,5.739460702688181648e-02
3.575436000000000149e+03,4.431392701953029700e-03,5.613264247443416899e-02
3.577364999999999782e+03,4.435334535887847096e-03,5.432237293404029721e-02
3.579293000000000120e+03,4.449823303392719254e-03,5.333295239659707754e-02
3.581222000000000207e+03,4.474874034304576753e-03,5.393814527227558386e-02
3.583150000000000091e+03,4.510460755870582261e-03,5.544809579926934795e-02
3.585079000000000178e+03,4.556620383773690719e-03,5.675390220795772933e-02
3.587007000000000062e+03,4.613305059400829577e-03,5.649000030803041916e-02
3.588936000000000149e+03,4.680573584280978139e-03,6.092945370774383029e-02
3.590864000000000033e+03,4.758356213969250348e-03,7.190393025120811465e-02
3.592793000000000120e+03,4.846733635837097154e-03,7.976865097954743966e-02
3.594721000000000004e+03,4.945614219590055427e-03,9.124613752406696143e-02
3.596650000000000091e+03,5.055100538438495050e-03,1.048357313629058041e-01
3.598577999999999975e+03,5.175079076249033960e-03,1.107290955927087150e-01
3.600507000000000062e+03,5.305674292085171828e-03,9.752764219431919734e-02
3.602434999999999945e+03,5.446750783956844089e-03,7.613871368586999644e-02
3.604364000000000033e+03,5.598454896773574774e-03,6.188057067686436596e-02
3.606291999999999916e+03,5.760629342706380385e-03,5.329678499066048403e-02
3.608221000000000004e+03,5.933442352510809314e-03,4.509405183529846539e-02
3.610148999999999887e+03,6.116714752501195562e-03,4.323484695779900022e-02
3.612077999999999975e+03,6.310636659289770023e-03,4.242634908820841488e-02
3.614005999999999858e+03,6.515007013344842335e-03,3.685353640119037877e-02
3.615934999999999945e+03,6.730037817114009613e-03,3.472149356871434556e-02
3.617862999999999829e+03,6.955506125230215275e-03,3.203014029142781105e-02
3.619791999999999916e+03,7.191645825983528084e-03,2.780835417401616994e-02
3.621719999999999800e+03,7.438212088164419811e-03,3.132859272331844913e-02
3.623648999999999887e+03,7.695460685898325437e-03,3.255421079898979109e-02
3.625577000000000226e+03,7.963124902140350514e-03,3.199644246872801467e-02
3.627505999999999858e+03,8.241482396858401671e-03,2.826614926188986132e-02
3.629434000000000196e+03,8.530244567161560099e-03,2.000407262681402898e-02
3.631362999999999829e+03,8.829710958863756787e-03,2.594437172586272489e-02
3.633291000000000167e+03,9.139571083228048565e-03,2.918601266285469897e-02
3.635219999999999800e+03,9.460146371914390784e-03,3.053783199662896131e-02
3.637148000000000138e+03,9.791104450339815912e-03,3.203291253136431038e-02
3.639077000000000226e+03,1.013278863600675095e-02,3.227497442878646261e-02
3.641005000000000109e+03,1.048484466849330943e-02,3.389400906647077605e-02
3.642934000000000196e+03,1.084763775114794271e-02,3.138272715332979246e-02
3.644862000000000080e+03,1.122079173769563454e-02,2.893335766086901906e-02
3.646791000000000167e+03,1.160469371733086064e-02,2.016120135999632801e-02
3.648719000000000051e+03,1.199894565793968582e-02,9.019956596179268260e-03
3.650648000000000138e+03,1.240395653456261016e-02,1.036618396882338367e-02
3.652576000000000022e+03,1.281930642922901598e-02,2.247989502634539782e-02
3.654505000000000109e+03,1.324542620283608585e-02,2.686525811941176123e-02
3.656432999999999993e+03,1.368187405156717773e-02,2.338322248133462011e-02
3.658362000000000080e+03,1.412910272215839314e-02,2.401958827147332443e-02
3.660289999999999964e+03,1.458664852494706565e-02,2.523595331473749148e-02
3.662219000000000051e+03,1.505498609251887387e-02,2.467108284511376759e-02
3.664146999999999935e+03,1.553362984937578517e-02,2.402161123017521049e-02
3.666076000000000022e+03,1.602307631393173892e-02,2.068166441183372228e-02
3.668003999999999905e+03,1.652281802484267814e-02,1.577476612556671931e-02
3.669932999999999993e+03,1.703337338638277743e-02,5.780737601184027241e-03
3.671860999999999876e+03,1.755421305136195542e-02,1.088761450347464077e-02
3.673789999999999964e+03,1.808587730988620024e-02,1.281627572761490086e-02
3.675717999999999847e+03,1.862781492891940616e-02,-7.323332752249278599e-04
3.677646999999999935e+03,1.918058808442779650e-02,4.156114634666252527e-03
3.679574999999999818e+03,1.974362365752924120e-02,1.083203589973336101e-02
3.681503999999999905e+03,2.031750571001822436e-02,1.474617568086378228e-02
3.683431999999999789e+03,2.090163923717724970e-02,1.607147306445022572e-02
3.685360999999999876e+03,2.149663018665037839e-02,1.118253690118953259e-02
3.687289000000000215e+03,2.210186166787053708e-02,4.865185739387101194e-03
3.689217999999999847e+03,2.271796151433136401e-02,-4.418153569319738239e-03
3.691146000000000186e+03,2.334429094961265605e-02,-2.405243138028811956e-03
3.693074999999999818e+03,2.398149969305407581e-02,1.713941528011408977e-03
3.695003000000000156e+03,2.462892708240005391e-02,4.659964052745602103e-03
3.696931999999999789e+03,2.528724472282206648e-02,4.123449707583271007e-03
3.698860000000000127e+03,2.595577006622917793e-02,4.201411779520158873e-03
