wavenumber (/cm),baseline value (/cm),baseline-subtracted absorbance (/cm),
3.199378999999999905e+03,1.728035782876702342e-01,-1.572707975328158092e-03
3.201307999999999993e+03,1.709100463765196309e-01,-1.722641140494141077e-03
3.203235999999999876e+03,1.690280450556294056e-01,-9.386384044619000555e-04
3.205164999999999964e+03,1.671556220414629479e-01,-1.532081837590792972e-05
3.207092999999999847e+03,1.652947186746303032e-01,2.275192713921403431e-04
3.209021000000000186e+03,1.634443615498106794e-01,1.022786939019804109e-03
3.210949999999999818e+03,1.616035991446800324e-01,1.328271875233044685e-03
3.212878000000000156e+03,1.597743399739179893e-01,9.584003475214264434e-04
3.214806999999999789e+03,1.579546864657714877e-01,-3.001327409155041259e-04
3.216735999999999876e+03,1.561455901425574666e-01,8.803878216596672246e-04
3.218664000000000215e+03,1.543479806379082220e-01,7.317221822676356346e-04
3.220592999999999847e+03,1.525599932116818991e-01,-5.112213527917464084e-04
3.222521000000000186e+03,1.507834816610937878e-01,-3.036474348732109974e-04
3.224449000000000069e+03,1.490175163525186974e-01,1.425423099619183009e-03
3.226378000000000156e+03,1.472611895353210798e-01,1.930006259685534964e-03
3.228306000000000040e+03,1.455163221808071228e-01,4.050846524337958776e-03
3.230235000000000127e+03,1.437811042605972034e-01,5.056760896584688858e-03
3.232164000000000215e+03,1.420564435253162117e-01,4.345810593757881701e-03
3.234092000000000098e+03,1.403432258369115004e-01,4.389666106887124553e-03
3.236021000000000186e+03,1.386396739986182070e-01,4.904448107921788313e-03
3.237949000000000069e+03,1.369475542642781818e-01,4.468750193419190886e-03
3.239876999999999953e+03,1.352659807719440721e-01,6.770358053488079175e-03
3.241806000000000040e+03,1.335940895426830366e-01,7.216382508262064732e-03
3.243733999999999924e+03,1.319336140044136130e-01,7.955903836483979585e-03
3.245663000000000011e+03,1.302828316721367230e-01,8.092837993283252818e-03
3.247592000000000098e+03,1.286426065247887607e-01,7.048184943926449897e-03
3.249519999999999982e+03,1.270137806526356883e-01,7.078506823357422206e-03
3.251447999999999865e+03,1.253955010224885314e-01,8.176469057365909343e-03
3.253376999999999953e+03,1.237869364841763797e-01,8.204522122919555294e-03
3.255304999999999836e+03,1.221897548080903562e-01,9.628399442389801166e-03
3.257233999999999924e+03,1.206022991667659028e-01,1.183796162369199489e-02
3.259161999999999807e+03,1.190262154447410126e-01,1.419404130245394136e-02
3.261090999999999894e+03,1.174598687003971520e-01,1.351577064055098365e-02
3.263019999999999982e+03,1.159040791409857718e-01,1.361174012516203069e-02
3.264947999999999865e+03,1.143596450850772328e-01,1.344284152161440149e-02
3.266876000000000204e+03,1.128257572711746093e-01,1.377946864614065792e-02
3.268804999999999836e+03,1.113016283207990398e-01,1.359112413042910805e-02
3.270733000000000175e+03,1.097888384609575496e-01,1.432412019667915482e-02
3.272661999999999807e+03,1.082858184075661256e-01,1.653410477043849858e-02
3.274590999999999894e+03,1.067933555391036293e-01,1.740587624094287744e-02
3.276518999999999778e+03,1.053122153453784904e-01,1.508715794886995865e-02
3.278447999999999865e+03,1.038408613739036923e-01,1.739208111068139828e-02
3.280376000000000204e+03,1.023808191342361340e-01,2.082614538613182520e-02
3.282304000000000087e+03,1.009313231365815966e-01,2.178625494893339509e-02
3.284233000000000175e+03,9.949162977413550379e-02,2.155330098498713098e-02
3.286161000000000058e+03,9.806323173054209974e-02,2.152915682702384592e-02
3.288090000000000146e+03,9.664464726508725789e-02,2.244718534382812714e-02
3.290018999999999778e+03,9.523661998456134370e-02,2.335187693245070750e-02
3.291947000000000116e+03,9.383987160707718544e-02,2.486436371082435814e-02
3.293875000000000000e+03,9.245366947160604809e-02,2.634073060925921916e-02
3.295804000000000087e+03,9.107730280011594459e-02,2.585381010800090473e-02
3.297731999999999971e+03,8.971219861870238788e-02,2.645443435410664568e-02
3.299661000000000058e+03,8.835694084419642991e-02,2.668384557044019278e-02
3.301588999999999942e+03,8.701293461684755925e-02,2.513333041903638432e-02
3.303518000000000029e+03,8.567878573932574682e-02,2.391527066419189829e-02
3.305447000000000116e+03,8.435519404673286203e-02,2.668948400845770619e-02
3.307375000000000000e+03,8.304283748549678990e-02,2.673159898473469187e-02
3.309302999999999884e+03,8.174102716627018594e-02,2.642050118711099238e-02
3.311231999999999971e+03,8.044909608271311185e-02,2.736764302574741514e-02
3.313159999999999854e+03,7.916838371754764125e-02,2.812849286185196973e-02
3.315088999999999942e+03,7.789756153097471270e-02,2.883361202608582252e-02
3.317016999999999825e+03,7.663794711987392816e-02,3.035229850834804399e-02
3.318945999999999913e+03,7.538823383028159242e-02,2.844872159274479395e-02
3.320875000000000000e+03,7.414907772562528976e-02,2.931160154254412731e-02
3.322802999999999884e+03,7.292111298063730374e-02,3.202698163171487089e-02
3.324731000000000222e+03,7.170369447765168047e-02,3.242184883580230548e-02
3.326659999999999854e+03,7.049619898203118851e-02,3.147842954318867681e-02
3.328588000000000193e+03,6.929987843311380402e-02,3.160859220268931458e-02
3.330516999999999825e+03,6.811349183447390487e-02,3.185598153053166570e-02
3.332445000000000164e+03,6.693826923961410102e-02,3.161156397579074906e-02
3.334373999999999796e+03,6.577299153796190012e-02,3.166969521024391720e-02
3.336302000000000135e+03,6.461886689716322962e-02,3.241363082850139132e-02
3.338231000000000222e+03,6.347469809249162154e-02,3.289470451541297302e-02
3.340159000000000106e+03,6.234167140575763710e-02,3.421276102121094398e-02
3.342088000000000193e+03,6.121861149807017455e-02,3.414310891029938289e-02
3.344016000000000076e+03,6.010668276539377075e-02,3.384858863862928724e-02
3.345945000000000164e+03,5.900473175469045373e-02,3.390389050347190902e-02
3.347873000000000047e+03,5.791390097607873599e-02,3.496515492203101927e-02
3.349802000000000135e+03,5.683305886235956450e-02,3.599732625843292400e-02
3.351730000000000018e+03,5.576332603780542740e-02,3.730424699363092678e-02
3.353659000000000106e+03,5.470359282107040144e-02,3.614766564451134256e-02
3.355586999999999989e+03,5.365495795058095041e-02,3.464874163498458948e-02
3.357516000000000076e+03,5.261633363082296455e-02,3.552715166180821227e-02
3.359443999999999960e+03,5.158879671439819958e-02,3.727064935858269423e-02
3.361373000000000047e+03,5.057128129162791197e-02,3.873666371999646973e-02
3.363302000000000135e+03,4.956432305379010472e-02,4.104519883037040240e-02
3.365230000000000018e+03,4.856843580347458555e-02,4.052243653049893146e-02
3.367157999999999902e+03,4.758309479516853457e-02,3.993105662502756392e-02
3.369086999999999989e+03,4.660779716636653802e-02,3.897984055727644892e-02
3.371014999999999873e+03,4.564355411211806768e-02,4.086554322943657114e-02
3.372943999999999960e+03,4.468936538030021666e-02,4.283747177728595978e-02
3.374871999999999844e+03,4.374622028011998509e-02,4.209275677436298546e-02
3.376800999999999931e+03,4.281314044528272689e-02,4.112934413977741011e-02
3.378728999999999814e+03,4.189109329916007596e-02,4.114736823930149889e-02
3.380657999999999902e+03,4.097912236131051600e-02,3.913494819362732524e-02
3.382585999999999785e+03,4.007817316924899842e-02,4.144259909396739994e-02
3.384514999999999873e+03,3.918731112838003128e-02,4.333603871494352833e-02
3.386443000000000211e+03,3.830745989038319976e-02,4.356057811628820386e-02
3.388371999999999844e+03,3.743770674649837815e-02,4.399633752723054736e-02
3.390300000000000182e+03,3.657895346255912727e-02,4.391296001161452967e-02
3.392228999999999814e+03,3.573030921565845119e-02,4.291413635191455855e-02
3.394157000000000153e+03,3.489265388578388638e-02,4.374294704416657742e-02
3.396085999999999785e+03,3.406511853586380312e-02,4.770067545989077618e-02
3.398014000000000124e+03,3.324856116005037165e-02,4.842449049263335137e-02
3.399943000000000211e+03,3.244213470711443392e-02,4.573020937455950230e-02
3.401871000000000095e+03,3.164667528535858310e-02,4.893211780066185346e-02
3.403800000000000182e+03,3.086135772941034361e-02,5.216947215030258433e-02
3.405728000000000065e+03,3.008699626171917885e-02,5.201135610864369985e-02
3.407657000000000153e+03,2.932278760275508489e-02,5.174892977316729314e-02
3.409585000000000036e+03,2.856952408912150077e-02,5.224655798911563565e-02
3.411514000000000124e+03,2.782642432713799963e-02,5.134379704150650314e-02
3.413442000000000007e+03,2.709425876756910156e-02,5.042585646542392663e-02
3.415371000000000095e+03,2.637226790256974596e-02,5.027136901242067191e-02
3.417298999999999978e+03,2.566120029705842853e-02,5.110575613678368379e-02
3.419228000000000065e+03,2.496031832904677117e-02,5.374548375323363880e-02
3.421155999999999949e+03,2.427034867760013981e-02,5.404618826771472040e-02
3.423085000000000036e+03,2.359057560656552255e-02,5.405963161065881206e-02
3.425012999999999920e+03,2.292170390918002454e-02,5.722905925669484473e-02
3.426942000000000007e+03,2.226303973513310552e-02,5.816660749017772691e-02
3.428869999999999891e+03,2.161526599180518815e-02,6.042178040463673516e-02
3.430798999999999978e+03,2.097771071474241467e-02,6.154548750622189368e-02
3.432726999999999862e+03,2.035103492547918336e-02,6.053817967069992367e-02
3.434655999999999949e+03,1.973458854540055540e-02,6.056779697971821641e-02
3.436583999999999833e+03,1.912901071019490473e-02,6.178941646053186243e-02
3.438512999999999920e+03,1.853367322710042231e-02,6.223611349078091159e-02
3.440440999999999804e+03,1.794919334595945770e-02,6.327935209020753293e-02
3.442369999999999891e+03,1.737496475984201538e-02,6.463286906205224780e-02
3.444297999999999774e+03,1.681158283276573684e-02,6.497149611194262542e-02
3.446226999999999862e+03,1.625846314363599276e-02,6.235540524815617880e-02
3.448155000000000200e+03,1.571617917061729486e-02,6.081020311989114580e-02
3.450083999999999833e+03,1.518416837846814360e-02,6.311569010732991092e-02
3.452012000000000171e+03,1.466298235951413176e-02,6.449227893635163522e-02
3.453940999999999804e+03,1.415208046435267875e-02,6.509607479694316801e-02
3.455869000000000142e+03,1.365199239945624754e-02,6.467788731347208497e-02
3.457797999999999774e+03,1.316219940127538734e-02,6.471999002559210290e-02
3.459726000000000113e+03,1.268320929044364220e-02,6.672465485592248002e-02
3.461655000000000200e+03,1.221452518924692754e-02,6.615467525551201045e-02
3.463583000000000084e+03,1.175663303247631575e-02,6.420712922366438036e-02
3.465512000000000171e+03,1.130905782826374661e-02,6.681244222227704366e-02
3.467440000000000055e+03,1.087226362555071546e-02,6.868666693140874913e-02
3.469369000000000142e+03,1.044579731832229186e-02,6.740899900230847008e-02
3.471297000000000025e+03,1.003010106967394677e-02,6.769834328492020659e-02
3.473226000000000113e+03,9.624743659429668696e-03,6.732592853302964142e-02
3.475153999999999996e+03,9.230145364838904243e-03,6.926171756854833383e-02
3.477083000000000084e+03,8.845896851578771702e-03,7.095199054354910106e-02
3.479010999999999967e+03,8.472396511052693313e-03,6.993501276823567425e-02
3.480940000000000055e+03,8.109256894773153590e-03,6.814066729404720524e-02
3.482867999999999938e+03,7.756854508308208551e-03,6.810971781555714977e-02
3.484797000000000025e+03,7.414823789012814359e-03,6.844679553778391934e-02
3.486724999999999909e+03,7.083519356609002671e-03,6.877046831143911187e-02
3.488653999999999996e+03,6.762597534297754009e-03,6.810478344215024904e-02
3.490581999999999880e+03,6.452391055955075672e-03,6.891372640083255618e-02
3.492510999999999967e+03,6.152578130627972541e-03,6.969094759463230482e-02
3.494438999999999851e+03,5.863469606346427554e-03,6.712217681031180938e-02
3.496367999999999938e+03,5.584765578003469955e-03,6.586828203141732729e-02
3.498295999999999822e+03,5.316755007783058318e-03,6.963139014535553450e-02
3.500224999999999909e+03,5.059159876424246249e-03,6.855309121020268515e-02
3.502152999999999793e+03,4.812247260264967963e-03,6.613054056951366000e-02
3.504081999999999880e+03,4.575761025886748712e-03,6.519149865267385990e-02
3.506010000000000218e+03,4.349946363788603776e-03,6.786277980623060813e-02
3.507938999999999851e+03,4.134569026398082769e-03,6.739454246657673731e-02
3.509867000000000189e+03,3.929852318361071184e-03,6.557459527084343043e-02
3.511795999999999822e+03,3.735583877954695708e-03,6.714109660319358963e-02
3.513724000000000160e+03,3.551965123978817473e-03,6.737313343055469084e-02
3.515652999999999793e+03,3.378805580553034815e-03,6.670696213399261720e-02
3.517581000000000131e+03,3.216284780641842644e-03,6.598127915345297634e-02
3.519510000000000218e+03,3.064234134200205517e-03,6.285510277068204199e-02
3.521438000000000102e+03,2.922811288346593983e-03,6.223987950312211137e-02
3.523367000000000189e+03,2.791869538889102387e-03,5.899889160535430610e-02
3.525295000000000073e+03,2.671544647096624203e-03,5.631854935876610957e-02
3.527224000000000160e+03,2.561711794619725424e-03,5.599095170482433492e-02
3.529152000000000044e+03,2.462484856891933305e-03,5.830598780054262187e-02
3.531081000000000131e+03,2.373760901402732770e-03,6.064281647654126695e-02
3.533009000000000015e+03,2.295631917732521288e-03,6.257599448477429993e-02
3.534938000000000102e+03,2.228016859223913571e-03,6.365912556471221839e-02
3.536865999999999985e+03,2.170985829618388152e-03,6.207388428056051510e-02
3.538795000000000073e+03,2.124479668097478680e-03,6.196897024598317649e-02
3.540722999999999956e+03,2.088546592549533898e-03,6.075730400888583460e-02
3.542652000000000044e+03,2.063149328009217243e-03,5.963269621934751130e-02
3.544579999999999927e+03,2.048314206525958525e-03,5.733326873090455189e-02
3.546509000000000015e+03,2.044025838969787401e-03,5.196653718539087641e-02
3.548436999999999898e+03,2.050288671547662034e-03,5.380420440436460561e-02
3.550365999999999985e+03,2.067109200975636440e-03,5.718049011166967399e-02
3.552293999999999869e+03,2.094469987614644424e-03,5.585190623799941856e-02
3.554222999999999956e+03,2.132399414023211648e-03,5.888427904549363434e-02
3.556150999999999840e+03,2.180858154723352982e-03,6.509716671134356536e-02
3.558079999999999927e+03,2.239896478119618450e-03,6.980988619649881877e-02
3.560007999999999811e+03,2.309453172877340421e-03,7.129445868399116037e-02
3.561936999999999898e+03,2.389600393257751421e-03,7.299218470731842767e-02
3.563864999999999782e+03,2.480255042080159456e-03,7.557670442420912071e-02
3.565793999999999869e+03,2.581511159441163272e-03,7.059907107041833718e-02
3.567722000000000207e+03,2.693263762324704658e-03,5.346588917409499098e-02
3.569650999999999840e+03,2.815628776669854005e-03,5.277029056023503639e-02
3.571579000000000178e+03,2.948479333614528741e-03,5.801159344511790106e-02
3.573507999999999811e+03,3.091953244943823620e-03,5.897486167469633001e-02
3.575436000000000149e+03,3.245901755953184420e-03,5.907119113801224952e-02
3.577364999999999782e+03,3.410484564263072116e-03,5.692677410348180589e-02
3.579293000000000120e+03,3.585531029330013553e-03,5.372286884937210738e-02
3.581222000000000207e+03,3.771222734627599493e-03,5.437266688429487349e-02
3.583150000000000091e+03,3.967367153759226994e-03,5.785078709672092367e-02
3.585079000000000178e+03,4.174167756037405752e-03,5.907444237233619444e-02
3.587007000000000062e+03,4.391410129226613890e-03,5.746131401916114434e-02
3.588936000000000149e+03,4.619319628488938179e-03,5.893445576825623311e-02
3.590864000000000033e+03,4.857659955742832381e-03,7.188847367409643974e-02
3.592793000000000120e+03,5.106678351989302200e-03,8.262853846798441648e-02
3.594721000000000004e+03,5.366116633304329753e-03,9.371570889990098185e-02
3.596650000000000091e+03,5.636243926534945103e-03,1.063146304290700644e-01
3.598577999999999975e+03,5.916780161907553293e-03,1.149285144908772788e-01
3.600507000000000062e+03,6.208016352122314174e-03,1.018707767338981190e-01
3.602434999999999945e+03,6.509650541559608428e-03,7.838178784922177067e-02
3.604364000000000033e+03,6.821995628758514840e-03,6.439300487664935402e-02
3.606291999999999916e+03,7.144727772253389730e-03,5.392279471839657445e-02
3.608221000000000004e+03,7.478181756432888960e-03,4.007362254964211279e-02
3.610148999999999887e+03,7.822011853996002628e-03,3.928114189107628773e-02
3.612077999999999975e+03,8.176574735159647389e-03,4.185748975488381984e-02
3.614005999999999858e+03,8.541502786776788980e-03,3.431450651272791030e-02
3.615934999999999945e+03,8.917174564928131986e-03,3.446026402801637134e-02
3.617862999999999829e+03,9.303200570609959641e-03,3.182466761901908692e-02
3.619791999999999916e+03,9.699981245738342750e-03,2.174578849043874718e-02
3.621719999999999800e+03,1.010710520548485647e-02,2.547062652402085070e-02
3.623648999999999887e+03,1.052499477760093782e-02,3.137503554687091911e-02
3.625577000000000226e+03,1.095321669140503218e-02,3.274121371393208524e-02
3.627505999999999858e+03,1.139221516050170635e-02,3.260293292400250065e-02
3.629434000000000196e+03,1.184153502837048677e-02,1.341046133269288565e-02
3.631362999999999829e+03,1.230164239445130647e-02,1.947294569813942666e-02
3.633291000000000167e+03,1.277206021637766753e-02,2.755402893756957183e-02
3.635219999999999800e+03,1.325327647944263276e-02,2.859777982299344101e-02
3.637148000000000138e+03,1.374479225543367988e-02,3.122473165035830056e-02
3.639077000000000226e+03,1.424711741548279065e-02,3.068369224791556160e-02
3.641005000000000109e+03,1.475973114553497112e-02,3.316309307360987280e-02
3.642934000000000196e+03,1.528316520256822741e-02,3.116690050045411997e-02
3.644862000000000080e+03,1.581687688667798852e-02,3.306738471243247934e-02
3.646791000000000167e+03,1.636141984069539035e-02,2.799155701162443777e-02
3.648719000000000051e+03,1.691622947886983752e-02,1.238256765041349794e-02
3.650648000000000138e+03,1.748188132986783216e-02,3.516855150471814850e-03
3.652576000000000022e+03,1.805778892209985997e-02,1.581686992759183397e-02
3.654505000000000109e+03,1.864454967008555286e-02,2.798584555886421410e-02
3.656432999999999993e+03,1.924155521638226674e-02,2.383319460672497780e-02
3.658362000000000080e+03,1.984942486134855244e-02,2.242804405606781126e-02
3.660289999999999964e+03,2.046752836170639966e-02,2.401240694608700044e-02
3.662219000000000051e+03,2.109650690365683090e-02,2.288671355525352669e-02
3.664146999999999935e+03,2.173570835807581147e-02,2.220798920585827230e-02
3.666076000000000022e+03,2.238579579701038824e-02,2.299846580210010427e-02
3.668003999999999905e+03,2.304609520549050217e-02,2.091751542829096977e-02
3.669932999999999993e+03,2.371729154140922446e-02,2.562451711395782872e-03
3.671860999999999876e+03,2.439868890394691903e-02,4.268095691221385213e-03
3.673789999999999964e+03,2.509099413684978686e-02,1.292371323199688338e-02
3.675717999999999847e+03,2.579348945345572020e-02,-1.087324281441801044e-02
3.677646999999999935e+03,2.650690358333918084e-02,-2.793368760737338641e-03
3.679574999999999818e+03,2.723049685400269482e-02,8.473131974461867166e-03
3.681503999999999905e+03,2.796501988087385371e-02,9.827611272466882375e-03
3.683431999999999789e+03,2.870971110559850104e-02,1.372468695363530944e-02
3.685360999999999876e+03,2.946534302945025274e-02,1.319628640550375709e-02
3.687289000000000215e+03,3.023113220823603342e-02,1.118542495339340526e-02
3.689217999999999847e+03,3.100787302907193066e-02,-1.444333130583286273e-05
3.691146000000000186e+03,3.179476016191884469e-02,-2.536496743340055371e-03
3.693074999999999818e+03,3.259260987973888746e-02,-1.298462502805700081e-03
3.695003000000000156e+03,3.340059496665048755e-02,4.218378044569578988e-03
3.696931999999999789e+03,3.421955358145467585e-02,4.217472598672694639e-03
3.698860000000000127e+03,3.504863662242385658e-02,4.384245213217508041e-03
