baseline wavenumber (cm-1),baseline absorbance (cm-1),baseline-subtracted absorbance (cm-1)
3199.379,0.192052966744,1.59872115546e-14
3201.308,0.19007607549,6.99873830103e-05
3203.236,0.188110054774,0.00102620318598
3205.165,0.186152865157,0.00381024006895
3207.093,0.184206535865,0.00577122618876
3209.021,0.182270049733,0.0065306174057
3210.95,0.180342410017,0.00641742016574
3212.878,0.178425615308,0.00729610712153
3214.807,0.17651767723,0.00747757193589
3216.736,0.174619592525,0.00820209958102
3218.664,0.172732337504,0.0087980375085
3220.593,0.170853954436,0.00964639934986
3222.521,0.168986390839,0.00973037859387
3224.449,0.167128670402,0.0102543276778
3226.378,0.165279837235,0.0106364672227
3228.306,0.163441808221,0.0117927010276
3230.235,0.161612676692,0.0135258050629
3232.164,0.159793398535,0.0139365115025
3234.092,0.15798490921,0.0129061248548
3236.021,0.15618533269,0.0135392200241
3237.949,0.154396534789,0.0134954090101
3239.877,0.152617580046,0.0137136642679
3241.806,0.150847553428,0.0149055042893
3243.734,0.14908829011,0.0163281659702
3245.663,0.147337965129,0.0178035490729
3247.592,0.145597493521,0.0177912662082
3249.52,0.143867769891,0.0170136614242
3251.448,0.14214788942,0.0166992752419
3253.377,0.140436967714,0.0165978043475
3255.305,0.138736778667,0.0182732284092
3257.234,0.137045558597,0.0192836640854
3259.162,0.135365060974,0.0191684475674
3261.091,0.133693542542,0.0191943579938
3263.02,0.132031877482,0.0196693253882
3264.948,0.130380919548,0.0200749583459
3266.876,0.128739804772,0.0210100183353
3268.805,0.127107689614,0.0217748535982
3270.733,0.125486266262,0.0226998249132
3272.662,0.123873852742,0.0224508212701
3274.591,0.122271292594,0.0241933793964
3276.519,0.12067940893,0.0242690394675
3278.448,0.11909655042,0.0241916331445
3280.376,0.11752435818,0.0248687480568
3282.304,0.115962009099,0.0238024708359
3284.233,0.11440870049,0.024019481052
3286.161,0.112866042834,0.0258406184419
3288.09,0.111332435862,0.0260657244534
3290.019,0.109808682263,0.0269006071337
3291.947,0.108295564294,0.0277142406181
3293.875,0.106792289485,0.0280965207846
3295.804,0.105298085788,0.0287532636511
3297.732,0.103814502403,0.0293478346034
3299.661,0.102340000342,0.029708417731
3301.589,0.100876108381,0.0307806185979
3303.518,0.0994213079578,0.0309061963382
3305.447,0.0979763609073,0.0307970142064
3307.375,0.0965420086341,0.0307388970568
3309.303,0.0951174995201,0.0319197995802
3311.232,0.0937021023715,0.0322915294894
3313.16,0.0922972846813,0.0312638191295
3315.089,0.0909015891698,0.0307521053617
3317.017,0.0895164629034,0.0324177329927
3318.946,0.0881404690291,0.0322739654195
3320.875,0.0867743285274,0.0313233162719
3322.803,0.0854187419494,0.0315579082073
3324.731,0.0840729985306,0.0333211185219
3326.66,0.0827364079307,0.0340471764219
3328.588,0.0814103559356,0.0345868137803
3330.517,0.0800934669729,0.0345775125075
3332.445,0.0787871064017,0.0345875019072
3334.374,0.0774899190761,0.0345327231962
3336.302,0.0762032499287,0.0355510207678
3338.231,0.0749257642403,0.0354800782746
3340.159,0.0736587865166,0.0362578211858
3342.088,0.0724010024654,0.0366053656736
3344.016,0.0711537161656,0.0368787310193
3345.945,0.0699156337516,0.036101752279
3347.873,0.0686880388755,0.0353809998387
3349.802,0.0674696580987,0.0360924565278
3351.73,0.0662617546464,0.0379791227417
3353.659,0.0650630755068,0.0390221362591
3355.587,0.0638748634783,0.0396048696664
3357.516,0.0626958859758,0.0385979581564
3359.444,0.0615273653711,0.0399433715135
3361.373,0.0603680895059,0.0433441312563
3363.302,0.0592186670132,0.0438107477245
3365.23,0.0580796860969,0.0419086895223
3367.158,0.0569505483397,0.0420027519736
3369.087,0.0558306757489,0.0408427296893
3371.015,0.0547212294155,0.0396232565847
3372.944,0.0536210584618,0.0403408337852
3374.872,0.0525313035523,0.0416923899684
3376.801,0.0514508342357,0.0411863839994
3378.729,0.05038077075,0.0408741569767
3380.658,0.0493200030707,0.0397278085133
3382.586,0.0482696310087,0.0384775639777
3384.515,0.0472285649665,0.0397556663081
3386.443,0.0461978843284,0.042160045521
3388.372,0.0451765199234,0.0417450407761
3390.3,0.044165530709,0.0407096335485
3392.229,0.0431638679412,0.0412271155825
3394.157,0.0421725701507,0.0428875733852
3396.086,0.0411906090201,0.0438109072035
3398.014,0.0402190026533,0.0447441025727
3399.943,0.0392567431598,0.042711820471
3401.871,0.0383048282168,0.0434615722684
3403.8,0.0373622703606,0.0460522651696
3405.728,0.0364300468414,0.0476344432021
3407.657,0.0355071906223,0.0472513255002
3409.585,0.0345946585269,0.0453876521978
3411.514,0.0336915039451,0.0441650613031
3413.442,0.0327986632734,0.0455188339468
3415.371,0.0319152103287,0.0446641892467
3417.299,0.0310420610809,0.0430188911075
3419.228,0.0301783097734,0.0432923260297
3421.156,0.0293248519494,0.0445784129855
3423.085,0.028480802279,0.0413311859955
3425.013,0.0276470358788,0.0406138556607
3426.942,0.0268226878457,0.0431050388298
3428.87,0.0260086128692,0.0441323959249
3430.799,0.0252039664732,0.0427951237926
3432.727,0.0244095829206,0.0413278071532
3434.656,0.0236246381618,0.0387472409446
3436.584,0.0228499460329,0.037533658536
3438.513,0.0220847029114,0.0369262138985
3440.441,0.0213297022063,0.0373158047178
3442.37,0.0205841607219,0.0381396844212
3444.298,0.0198488514406,0.0388052474172
3446.227,0.0191230115934,0.0396635041248
3448.155,0.0184073937358,0.0395335746256
3450.084,0.0177012555258,0.0381321620422
3452.012,0.0170053290921,0.0399374587377
3453.941,0.0163188925193,0.0409412914492
3455.869,0.0156426575093,0.0417560082139
3457.798,0.0149759225737,0.0417556047689
3459.726,0.0143193789875,0.041512016949
3461.655,0.0136723456891,0.0410618097744
3463.583,0.0130354935267,0.0421499911594
3465.512,0.0124081618654,0.042459926682
3467.44,0.0117910011269,0.0443704261449
3469.369,0.0111833711028,0.0453975446963
3471.297,0.010585901788,0.0472974500769
3473.226,0.0099979734011,0.0473026431965
3475.154,0.00942019551012,0.0487598307711
3477.083,0.00885196876039,0.0500184446632
3479.011,0.0082938822932,0.0503293866849
3480.94,0.00774535718066,0.0513322734673
3482.868,0.00720696213726,0.0540216843805
3484.797,0.00667813866191,0.0546783760455
3486.725,0.00615943504229,0.0572551004879
3488.654,0.00565031320413,0.0581205348703
3490.582,0.0051513010083,0.0571376912084
3492.511,0.00466188080732,0.0555781879282
3494.439,0.00418256003529,0.0551007716134
3496.368,0.00371284147149,0.0554870978796
3498.296,0.00325321212325,0.0551658720777
3500.225,0.00280319519663,0.0537504285778
3502.153,0.00236325727218,0.0558435556258
3504.082,0.00193294198275,0.0585391089624
3506.01,0.00151269548209,0.0612341962595
3507.939,0.00110208182985,0.0636578494347
3509.867,0.00070152675298,0.0697998378483
3511.796,0.000310614737916,0.0729669552611
3513.724,-7.02489151614e-05,0.0731360530191
3515.653,-0.000441459293036,0.074317937611
3517.581,-0.000802631522326,0.077243549343
3519.51,-0.00115414026302,0.0801524218763
3521.438,-0.00149562106851,0.085076435786
3523.367,-0.00182742817202,0.0900908467508
3525.295,-0.00214921755373,0.090314081599
3527.224,-0.00246132302005,0.0888744434082
3529.152,-0.00276342097796,0.0893605098287
3531.081,-0.0030558248071,0.0870460198945
3533.009,-0.00333823134123,0.0836278300474
3534.938,-0.00361093353318,0.0798860775744
3536.866,-0.00387364864351,0.0790672198555
3538.795,-0.00412664919828,0.0767481997896
3540.723,-0.00436967288482,0.0763402581471
3542.652,-0.00460297180241,0.0768914586113
3544.58,-0.00482630406516,0.0774230896711
3546.509,-0.00503990134556,0.0747674865068
3548.437,-0.00524354218452,0.07213528382
3550.366,-0.00543743782774,0.0701579472789
3552.294,-0.00562138724291,0.0728957226316
3554.223,-0.00579558124894,0.0757551486198
3556.151,-0.00595983924032,0.0813338410598
3558.08,-0.00611433160916,0.0930854222793
3560.008,-0.00625889817676,0.108100604434
3561.937,-0.00639368890841,0.119336678901
3563.865,-0.00651856405221,0.124629854864
3565.794,-0.00663365314669,0.127650533769
3567.722,-0.0067388368667,0.135172577896
3569.651,-0.00683422432399,0.14016688378
3571.579,-0.00691971662021,0.144141489591
3573.508,-0.00699540244031,0.138803751778
3575.436,-0.00706120331274,0.121049882177
3577.365,-0.00711718749567,0.0992853872329
3579.293,-0.0071632969443,0.0829375817922
3581.222,-0.00719957949004,0.0730901081467
3583.15,-0.00722599751489,0.067813281453
3585.079,-0.00724257842344,0.0624942715398
3587.007,-0.00724930502449,0.0658498306487
3588.936,-0.00724618429586,0.0761534924936
3590.864,-0.00723321947313,0.0819926453298
3592.793,-0.00721039710731,0.0923488788621
3594.721,-0.00717774086079,0.114104861047
3596.65,-0.00713521685778,0.133634256583
3598.578,-0.00708286918747,0.138195271896
3600.507,-0.00702064354728,0.121261015527
3602.435,-0.00694860445318,0.0885209283185
3604.364,-0.0068666771758,0.0620132454564
3606.292,-0.00677494665791,0.048720261527
3608.221,-0.00667331774335,0.0413665351698
3610.149,-0.00656189580167,0.0366073825094
3612.078,-0.00644056524992,0.0329183778447
3614.006,-0.00630945188445,0.0333457401691
3615.935,-0.00616841969552,0.0324632746435
3617.863,-0.00601761490625,0.0301548836822
3619.792,-0.00585688108014,0.031028719754
3621.72,-0.00568638486708,0.0311933089548
3623.649,-0.00550594940379,0.0279389828618
3625.577,-0.00531576176694,0.0254411029172
3627.506,-0.00511562466646,0.0216717754802
3629.434,-0.00490574560582,0.0347010554208
3631.363,-0.00468590686815,0.0354243077577
3633.291,-0.00445633638373,0.0295104150252
3635.22,-0.00421679600887,0.0265047774099
3637.148,-0.00396753410065,0.0246958268329
3639.077,-0.00370829208862,0.0262803127093
3641.005,-0.00343933875661,0.0252577962518
3642.934,-0.00316039510739,0.0226575142826
3644.862,-0.00287175035159,0.0173845371706
3646.791,-0.00257310506518,0.0126868218346
3648.719,-0.00226476888559,0.0200258120474
3650.648,-0.001946421962,0.0275377491631
3652.576,-0.00161839435862,0.0229461008177
3654.505,-0.00128034579784,0.0137593713715
3656.433,-0.000932626770673,0.0175792455921
3658.362,-0.000574876572717,0.0205945874794
3660.29,-0.000207466121751,0.0178709655658
3662.219,0.000169985713391,0.0149988205132
3664.147,0.000557087588149,0.0135387377429
3666.076,0.000954241060473,0.0112245722419
3668.004,0.00136103435902,0.00815882817004
3669.933,0.00177788946853,0.0134652117141
3671.861,0.00220437419087,0.0163865486839
3673.79,0.00264093093756,0.00741516933536
3675.718,0.00308710708369,0.0103946476924
3677.647,0.00354336546757,0.0105302219174
3679.575,0.00400923303749,0.00703493960984
3681.504,0.00448519305855,0.00677630497036
3683.432,0.00497075205226,0.00542649852896
3685.361,0.00546641371051,0.00242805712745
3687.289,0.00597166412801,-0.00227763804897
3689.218,0.00648702742345,0.00216100653996
3691.146,0.00701196926474,0.00588705024401
3693.075,0.00754703419736,0.00558699996821
3695.003,0.00809166746244,0.0044732774481
3696.932,0.00864643403224,0.00464528738694
3698.86,0.00921075872111,0.00408096269807
