baseline wavenumber (cm-1),baseline absorbance (cm-1),baseline-subtracted absorbance (cm-1)
3199.379,0.125790862226,1.06026298852e-14
3201.308,0.124484662155,0.000572853259956
3203.236,0.123186171874,0.00102427996066
3205.165,0.121894044401,0.000947257529524
3207.093,0.120609619423,0.00136996209946
3209.021,0.119332225273,0.00160469982603
3210.95,0.118061204872,0.00185732337992
3212.878,0.116797876025,0.00263899853299
3214.807,0.115540928223,0.00199156950304
3216.736,0.114291018544,0.00202091918999
3218.664,0.113048789474,0.0016332078983
3220.593,0.111812952393,0.00156054401891
3222.521,0.110584788625,0.00170561873352
3224.449,0.109363655686,0.00127103551005
3226.378,0.108148925678,0.000917484915789
3228.306,0.106941858041,0.00236613751162
3230.235,0.105741200631,0.00216934217745
3232.164,0.104547581344,0.00296015139664
3234.092,0.103361613484,0.00375847142419
3236.021,0.102182066795,0.00381095857607
3237.949,0.101010164239,0.00397305622015
3239.877,0.0998452925101,0.00424790470003
3241.806,0.0986868528939,0.00410390825036
3243.734,0.0975360464679,0.00584402024589
3245.663,0.0963916794497,0.00514061611281
3247.592,0.0952543505548,0.00479154047931
3249.52,0.0941246439062,0.00517526512036
3251.448,0.0930019680857,0.00553578588174
3253.377,0.0918857462634,0.00557397272978
3255.305,0.0907771357456,0.00656330699166
3257.234,0.0896749865214,0.00628518733895
3259.162,0.0885804413063,0.00496085051625
3261.091,0.08749236468,0.00388426526039
3263.02,0.086411326177,0.00487837361076
3264.948,0.0853378807393,0.00557731182112
3266.876,0.0842714661296,0.00669932129587
3268.805,0.0832115346993,0.00716893634085
3270.733,0.0821591853923,0.00820612341191
3272.662,0.08111332656,0.00815069850825
3274.591,0.080074505851,0.00762022779911
3276.519,0.0790432563214,0.00659143487442
3278.448,0.0780185082103,0.00706983708432
3280.376,0.0770013239835,0.00764125157501
3282.304,0.0759911705846,0.00788571205969
3284.233,0.0749875295463,0.00670851816424
3286.161,0.0739914414501,0.00701068126292
3288.09,0.0730018730097,0.00756256649293
3290.019,0.0720193426927,0.00764193295678
3291.947,0.0710443543739,0.00749643204071
3293.875,0.0700763968832,0.00753949314006
3295.804,0.0691149736388,0.00798590577088
3297.732,0.0681610814508,0.00841821704311
3299.661,0.0672137308044,0.00830875984557
3301.589,0.0662739039191,0.00795575341441
3303.518,0.0653406258707,0.00763814699905
3305.447,0.0644143859455,0.0101028484626
3307.375,0.0634956588376,0.0118378092711
3309.303,0.0625839625577,0.0107748770258
3311.232,0.0616788297053,0.00951079932534
3313.16,0.0607811987281,0.0100288689966
3315.089,0.0598901384737,0.00844646316387
3317.017,0.0590065727992,0.00819286114403
3318.946,0.0581295851427,0.00849974872972
3320.875,0.0572596356096,0.00935200898764
3322.803,0.0563971697125,0.00919203477555
3324.731,0.0555417346434,0.00970076004982
3326.66,0.0546928921829,0.00958831675269
3328.588,0.0538515224166,0.0107324258297
3330.517,0.0530167525541,0.0102147242477
3332.445,0.0521894480904,0.0101398756739
3334.374,0.0513687508259,0.00997502760328
3336.302,0.050555511665,0.0100508766904
3338.231,0.0497488869985,0.00961925208978
3340.159,0.0489497131402,0.00943793469159
3342.088,0.0481571610717,0.00894927782449
3344.016,0.0473720525162,0.0102670862688
3345.945,0.0465935730456,0.0104466574204
3347.873,0.0458225297928,0.0117655627979
3349.802,0.0450581229203,0.0128296765339
3351.73,0.0443011449701,0.0131727254433
3353.659,0.0435508106956,0.012285538238
3355.587,0.0428078980482,0.0120990058232
3357.516,0.0420716363716,0.012161053409
3359.444,0.0413427890269,0.0127185674878
3361.373,0.0406205999483,0.0124986763076
3363.302,0.0399054489931,0.0116455466604
3365.23,0.0391977014258,0.0105818396639
3367.158,0.0384969846865,0.012477340594
3369.087,0.0378029408039,0.012061508807
3371.015,0.0371162893673,0.0111308550783
3372.944,0.0364363180827,0.0105073794812
3374.872,0.0357637319488,0.0110707975165
3376.801,0.0350978332622,0.0114673138115
3378.729,0.034439312431,0.0121056183281
3380.658,0.0337874863424,0.0123793993343
3382.586,0.0331430308139,0.013387748525
3384.515,0.0325052773233,0.0135918620682
3386.443,0.0318748870976,0.0131507876219
3388.372,0.0312512062049,0.0126428603068
3390.3,0.0306348812819,0.0144246557645
3392.229,0.0300252729872,0.0147785276799
3394.157,0.0294230133669,0.0145428210615
3396.086,0.0288274776702,0.0146759085625
3398.014,0.0282392833526,0.0164866845035
3399.943,0.0276578202539,0.0177064777346
3401.871,0.027083691239,0.0179889864119
3403.8,0.0265163007383,0.0171685269176
3405.728,0.0259562370261,0.0189046747297
3407.657,0.0254029191234,0.0204142243114
3409.585,0.0248569207138,0.02084448432
3411.514,0.0243176754091,0.0197992759706
3413.442,0.0237857423023,0.020853800809
3415.371,0.0232605695956,0.0199340124321
3417.299,0.0227427017915,0.0195461893436
3419.228,0.0222316016828,0.0212278140657
3421.156,0.0217277991814,0.0230643771049
3423.085,0.0212307716706,0.022983218019
3425.013,0.020741034472,0.0234613308368
3426.942,0.0202580795592,0.0239346830002
3428.87,0.0197824076632,0.0254681735558
3430.799,0.0193135253485,0.0266926406275
3432.727,0.0188519187552,0.026732737062
3434.656,0.0183971090384,0.0277515819552
3436.584,0.0179495677479,0.0310481073759
3438.513,0.0175088306291,0.0303021468297
3440.441,0.0170753546412,0.0292633697093
3442.37,0.0166486901204,0.0295651984877
3444.298,0.0162292794353,0.0300669906547
3446.227,0.0158166875125,0.0289658860244
3448.155,0.0154113421301,0.0295031428593
3450.084,0.0150128228052,0.0316812032738
3452.012,0.0146215427255,0.0323752226642
3453.941,0.0142370959987,0.0310549286652
3455.869,0.0138598812217,0.0310470226498
3457.798,0.0134895070928,0.0306704039554
3459.726,0.0131263576185,0.0322884811564
3461.655,0.0127700560876,0.0322460158824
3463.583,0.012420971916,0.0333567497053
3465.512,0.0120787429832,0.0358975028472
3467.44,0.0117437241143,0.0377118505345
3469.369,0.0114155677794,0.0378464356574
3471.297,0.0110946142132,0.0381810352359
3473.226,0.0107805304763,0.0380190247647
3475.154,0.0104736422129,0.0381818717869
3477.083,0.010173631074,0.0373745342955
3479.011,0.00988080811318,0.0392078404262
3480.94,0.00959486957227,0.0405551354818
3482.868,0.00931611191421,0.0417850707402
3484.797,0.00904424597129,0.0432496992425
3486.725,0.00877955361593,0.0436412489718
3488.654,0.008521760271,0.0404516552753
3490.582,0.00827113321835,0.0397809237917
3492.511,0.0080274124714,0.0408070159123
3494.439,0.00779085072146,0.0417213296081
3496.368,0.00756120257251,0.0403149725008
3498.296,0.00733870612527,0.039436185212
3500.225,0.00712313057431,0.0409228615413
3502.153,0.00691469942978,0.0426904759467
3504.082,0.00671319647681,0.0410487564192
3506.01,0.00651883063499,0.0424682309237
3507.939,0.00633140028,0.0467489595704
3509.867,0.00615109974089,0.049260201179
3511.796,0.00597774198389,0.0481973313002
3513.724,0.00581150674749,0.0474401863689
3515.653,0.00565222158848,0.0470177470762
3517.581,0.00550005165478,0.0471153329606
3519.51,0.00535483909377,0.0480257330279
3521.438,0.00521673446278,0.0530192910098
3523.367,0.00508559449975,0.0532348340861
3525.295,0.00496155517147,0.0520928267147
3527.224,0.00484448780643,0.05119705672
3529.152,0.00473451378085,0.0503907262879
3531.081,0.0046315190138,0.0492039201856
3533.009,0.00453561029093,0.0487090071153
3534.938,0.00444668812187,0.0477188834944
3536.866,0.00436484470171,0.0449911645978
3538.795,0.00428999513064,0.044127977173
3540.723,0.00422221701319,0.0463351467794
3542.652,0.0041614400401,0.0475563402086
3544.58,0.00410772722536,0.0471147533164
3546.509,0.00406102285026,0.0430054888247
3548.437,0.00402137533823,0.0426317127038
3550.366,0.00398874356112,0.0468617567927
3552.294,0.00396316135179,0.0467882790606
3554.223,0.00394460217268,0.0470034418989
3556.151,0.00393308526605,0.0545667631116
3558.08,0.00392859868493,0.0618435634499
3560.008,0.00393114708101,0.0692937594185
3561.937,0.00394073309787,0.0761491284204
3563.865,0.00395734679667,0.0831677921905
3565.794,0.00398100541152,0.082755980336
3567.722,0.00401168441302,0.0692607304258
3569.651,0.00404941562586,0.0667171870225
3571.579,0.00409415993007,0.0714490524423
3573.508,0.0041459637409,0.0704248439009
3575.436,0.00420477334781,0.062742967479
3577.365,0.00427064975663,0.05467193591
3579.293,0.00434352466625,0.0499639654783
3581.222,0.00442347367306,0.046983986147
3583.15,0.00451041388539,0.0489040205632
3585.079,0.00460443549019,0.053313183028
3587.007,0.00470544100523,0.0516398536476
3588.936,0.00481353520801,0.0482395326177
3590.864,0.00492860602576,0.0623405742027
3592.793,0.00505077282653,0.0791596790081
3594.721,0.00517990894699,0.0951449672281
3596.65,0.00531614834575,0.109495738847
3598.578,0.00545934976891,0.117778191927
3600.507,0.00560966176566,0.102177056116
3602.435,0.00576692849153,0.0720521354931
3604.364,0.00593131308627,0.0525948165003
3606.292,0.00610264511485,0.0460462480419
3608.221,0.00628110230758,0.0371970135319
3610.149,0.00646649963887,0.0285035802156
3612.078,0.00665902942958,0.0267978592796
3614.006,0.00685849206358,0.0216944241398
3615.935,0.00706509445228,0.0233114344065
3617.863,0.00727862238898,0.0258755270096
3619.792,0.00749929737568,0.0189931215064
3621.72,0.00772689061509,0.0158929921303
3623.649,0.00796163819977,0.0191197830071
3625.577,0.00820329674189,0.0235773562451
3627.506,0.00845211692456,0.0243472361534
3629.434,0.00870784076939,0.0017159437247
3631.363,0.00897073355005,0.00462165500751
3633.291,0.00924052269758,0.0146133133481
3635.22,0.00951748807624,0.0129991903833
3637.148,0.00980134252647,0.0174767328804
3639.077,0.0100923805031,0.0188343353566
3641.005,0.0103903002561,0.0191966804374
3642.934,0.0106954108307,0.0181683817499
3644.862,0.0110073958863,0.0233369890323
3646.791,0.011326579059,0.0246517894844
3648.719,0.0116526294173,0.0098119414914
3650.648,0.0119858851879,-0.00530085536887
3652.576,0.012326000849,0.000857714909613
3654.505,0.0126733292176,0.0121917774235
3656.433,0.0130275101814,0.00694489454924
3658.362,0.013388911148,0.00292828282757
3660.29,0.0137571574144,0.00798366943282
3662.219,0.014132630979,0.0102864532219
3664.147,0.0145149425482,0.013029027936
3666.076,0.0149044887108,0.017032385847
3668.004,0.0153008655827,0.0200750567867
3669.933,0.0157044843432,0.00754230631683
3671.861,0.0161149265178,0.00301092004033
3673.79,0.0165326178764,0.0167165482006
3675.718,0.0169571253537,-0.000290391299317
3677.647,0.0173888893102,-0.00554440331003
3679.575,0.0178274620903,0.0019093214941
3681.504,0.0182732986448,0.00420496881707
3683.432,0.0187259367275,0.00671033134083
3685.361,0.01918584588,0.00689067287062
3687.289,0.0196525492654,0.00987484384079
3689.218,0.020126531016,-0.00205830095429
3691.146,0.0206072997041,-0.00496250035102
3693.075,0.0210953540526,-0.00322003817267
3695.003,0.0215901880434,0.00244700997537
3696.932,0.0220923149899,0.000966767189405
3698.86,0.0226012142835,0.000457867895848
