baseline wavenumber (cm-1),baseline absorbance (cm-1),baseline-subtracted absorbance (cm-1)
3199.3790000000004,0.17082128777923522,2.55351295663786e-15
3201.308,0.16936696196200174,0.000728054716457871
3203.236,0.16792042272344787,0.0006290567064519692
3205.165,0.16648016950420264,0.0008174146462067711
3207.093,0.16504769556835797,0.0013320679007615688
3209.0209999999997,0.1636222524605202,0.0014950021639618116
3210.95,0.16220310631396373,0.0015884634828622346
3212.8779999999997,0.1607917285088334,0.0022553755041050394
3214.8070000000002,0.15938665496026516,0.0022953424116138876
3216.736,0.15798861953498822,0.0031318696998241524
3218.664,0.15659834150726581,0.0035173968936237365
3220.593,0.15521437867997534,0.0028579957261704036
3222.5209999999997,0.15383816595496214,0.0019381405243665828
3224.449,0.15246898405795228,0.0017961529075789517
3226.3779999999997,0.15110612830335413,0.0012430074491981413
3228.3059999999996,0.14975101170905347,0.0020426808008018327
3230.235,0.14840222855244356,0.0026510414364373514
3232.164,0.1470604835191196,0.0033999430451178148
3234.092,0.14572646670222866,0.0037509415662440038
3236.0209999999997,0.14439879426689473,0.004365483505267442
3237.949,0.1430788427527112,0.0046230676890152145
3239.877,0.14176592206653282,0.00459918457452646
3241.8059999999996,0.14045935670388943,0.0035050625824746273
3243.7340000000004,0.13916050132041846,0.00440262412181347
3245.663,0.1378680085557651,0.005251368781746368
3247.592,0.13658255391439944,0.005303122826730733
3249.52,0.1353047983083382,0.004727547794967202
3251.448,0.13403407353028385,0.005644487068119042
3253.377,0.13276972596160697,0.0056599718044901826
3255.305,0.13151306648625827,0.00532762895496286
3257.2340000000004,0.13026279151557318,0.004509774945560929
3259.1620000000003,0.1290201973429319,0.004382713806365568
3261.091,0.12778399497023507,0.003849483246685881
3263.02,0.12655483072082419,0.004695042927209903
3264.948,0.12533333632559263,0.005037633046690804
3266.8759999999997,0.12411887275836975,0.0058513081776456755
3268.805,0.1229108155816494,0.006003568326164221
3270.7329999999997,0.12171041731713217,0.006472641411261693
3272.6620000000003,0.12051643273840007,0.006497112192359045
3274.591,0.11932948628295748,0.006501404245699116
3276.5190000000002,0.11815018779584996,0.0052916397589867215
3278.448,0.11697731393839739,0.005980332882587147
3280.3759999999997,0.11581208075399552,0.006414746295433371
3282.304,0.11465387839760055,0.00603196007404605
3284.2329999999997,0.11350211161283674,0.005034732620459392
3286.1609999999996,0.1123579745591492,0.006180891305603731
3288.09,0.11122028037237541,0.006839458837166745
3290.0190000000002,0.11008962430888936,0.006620170495517885
3291.947,0.10896658703261153,0.005924750276596891
3293.875,0.10785058058433883,0.007325301352384073
3295.804,0.10674103159354331,0.007899623415048684
3297.732,0.10563909044797981,0.007474727403025905
3299.6609999999996,0.10454361405517254,0.007573539487736536
3301.5890000000004,0.10345573821231469,0.008151964203534923
3303.518,0.10237433441749566,0.008144214051118537
3305.447,0.10129996874596792,0.009177136277786269
3307.375,0.10023319268051978,0.009360964804570715
3309.303,0.09917344744307677,0.008735174815085567
3311.232,0.09812018884423779,0.007484278961281232
3313.16,0.0970745089095022,0.008147870550722192
3315.0890000000004,0.09603532290865147,0.007732998126423918
3317.0170000000003,0.09500370827662685,0.008188953201185623
3318.946,0.09397859487376437,0.008090039514186631
3320.875,0.0929605195941896,0.007802140872807284
3322.803,0.09195000473957293,0.007957505621288163
3324.7309999999998,0.09094652071296139,0.009241491012501046
3326.66,0.08994955250607894,0.00904367502854142
3328.5879999999997,0.08896013378217482,0.010103850853426133
3330.5170000000003,0.08797723817327885,0.010083511851991522
3332.445,0.08700188475208215,0.009738234524173772
3334.3740000000003,0.0860330617411762,0.008757193995203028
3336.302,0.0850717736226887,0.008415540639921337
3338.2309999999998,0.08411702320977277,0.008136590456455761
3340.159,0.08316980039399091,0.008488442808273322
3342.0879999999997,0.08222912257906323,0.009243635937059236
3344.0159999999996,0.08129596506599057,0.010601336056014876
3345.945,0.08036935984905291,0.010308897504631598
3347.873,0.07945026763868768,0.010950520797580299
3349.802,0.07853773501973649,0.011331869751313839
3351.73,0.07763270811207867,0.011433803562842959
3353.659,0.07673424809111751,0.01081553458350093
3355.587,0.07584328648616889,0.011008022520199279
3357.5159999999996,0.07495889906319775,0.011643243866146236
3359.4440000000004,0.074082002760953,0.012126932850085037
3361.373,0.07321168793597188,0.012216392524960096
3363.302,0.07234841123427671,0.011905606758243259
3365.23,0.07149261470944346,0.010382448466539573
3367.158,0.07064384901261533,0.011512726343697266
3369.087,0.0698016793836107,0.011390577767910526
3371.015,0.06896697898949,0.011556623557765544
3372.9440000000004,0.0681388819584754,0.010990300291600419
3374.8720000000003,0.06731824686706211,0.01107809398000148
3376.801,0.06650422243403753,0.011216388098662322
3378.7290000000003,0.06569765264533167,0.01174043489131038
3380.658,0.06489770081029533,0.012650060232866522
3382.586,0.0641051963242969,0.013231809639515757
3384.515,0.06331931708725058,0.01296593511127353
3386.4429999999998,0.06254087790395957,0.013455280996273022
3388.3720000000003,0.0617690712649015,0.012913027188550474
3390.3,0.06100469738431791,0.013695090344379213
3392.2290000000003,0.06024696334324808,0.014573616864980043
3394.157,0.05949665476537369,0.015537712969388218
3396.086,0.05875299332229389,0.01589827525144527
3398.014,0.05801675004712514,0.01684476819809877
3399.9429999999998,0.05728716120203359,0.018061570224227386
3401.8709999999996,0.05656498322957404,0.019514062560378576
3403.8,0.055849466982472507,0.019439120907955076
3405.728,0.05514135431272038,0.02019272028548036
3407.657,0.054439910663607094,0.021417766481849232
3409.585,0.05374586329656239,0.022315493218144966
3411.514,0.05305849224543735,0.02127790722893841
3413.442,0.05237851018110007,0.021107793265781605
3415.3709999999996,0.05170521172796505,0.020843560130925032
3417.2990000000004,0.05103929496633519,0.021756621338122506
3419.228,0.05038006911118842,0.022173251418479034
3421.156,0.04972821765226776,0.02212410216982852
3423.085,0.04908306439510923,0.022244136656139113
3425.013,0.048445278238895995,0.0231851675308401
3426.942,0.04781419757972749,0.024476816268448
3428.87,0.047190476726221675,0.026615244490800438
3430.7990000000004,0.04657346866504142,0.027049800313023842
3432.7270000000003,0.045963813114243024,0.027871221758899667
3434.656,0.04536087765105279,0.029054870857993964
3436.5840000000003,0.04476528740296182,0.030944305238299608
3438.513,0.04417642453775983,0.030289864757701568
3440.441,0.04359489959237628,0.029974290744225418
3442.37,0.04302010932516431,0.02985515601396449
3444.298,0.042452649682488186,0.03076578759639592
3446.2270000000003,0.04189193201326624,0.030602761204160167
3448.155,0.04133853767329576,0.03065479094289758
3450.0840000000003,0.04079189260206206,0.031969150559769566
3452.012,0.04025256356480078,0.03291533292766857
3453.941,0.039719991091557105,0.033178523009322225
3455.869,0.039194727357003245,0.03441893887164316
3457.798,0.038676227481747816,0.034636721067731635
3459.7259999999997,0.03816502904990138,0.036067761812324406
3461.655,0.037660601772634195,0.0366191920209572
3463.583,0.037163468643496955,0.038044253988667176
3465.512,0.036673113964219795,0.04020296002749146
3467.44,0.0361900461377882,0.04217799186888316
3469.369,0.035713764056499286,0.042461713553932245
3471.297,0.035244761532775115,0.043694892768245785
3473.2259999999997,0.034782552049478,0.04501225235767847
3475.1540000000005,0.03432761482846125,0.045306975285760887
3477.083,0.033879477943150604,0.04522443391371789
3479.011,0.03343860602484128,0.04736650870274395
3480.94,0.033004541737520654,0.0481493044163257
3482.868,0.032577735121920526,0.05013327266136047
3484.797,0.03215774343258815,0.05197093340962344
3486.725,0.03174500211969544,0.051872707371864224
3488.6540000000005,0.03133908302835131,0.04966566780557169
3490.5820000000003,0.030940407018166027,0.05035748037696197
3492.511,0.030548560524813695,0.05038290616880803
3494.4390000000003,0.030163949817334057,0.05016254366290451
3496.368,0.02978617592196997,0.04899275867825226
3498.296,0.02941563051719953,0.049264244141650204
3500.225,0.029051929219821915,0.05075045630529684
3502.153,0.028695449117758898,0.05271868208612285
3504.0820000000003,0.02834582041837308,0.05103960361882487
3506.01,0.028003405619017485,0.053313687274947896
3507.9390000000003,0.027667849517619914,0.05844606941495867
3509.867,0.02733950002097174,0.06286973883478486
3511.796,0.027018016517564192,0.06314472481469102
3513.724,0.02670373232362344,0.06286616558398794
3515.653,0.02639632141820414,0.06450178835638398
3517.5809999999997,0.02609610252697081,0.06738464143340528
3519.51,0.025802764219539753,0.07028032483332591
3521.438,0.025516610631015624,0.0755705216847633
3523.367,0.02523734492157459,0.07868411469633696
3525.295,0.024965256635757882,0.07977294209061436
3527.224,0.024700063524305094,0.07676865172890424
3529.152,0.024442040541194032,0.07448447315535911
3531.0809999999997,0.024190920027731266,0.0723227765253871
3533.009,0.023946962347329404,0.07060069761425947
3534.938,0.023709914431854884,0.06865640518807847
3536.866,0.023480022054160443,0.0656228789869796
3538.795,0.02325704673667417,0.0643372118299892
3540.723,0.02304121966168715,0.06607734902324158
3542.652,0.022832316942192676,0.0661942675114614
3544.58,0.02263055516991308,0.06314827834873649
3546.509,0.022435725048405075,0.056346747406866404
3548.437,0.0222480285788329,0.05465432662181402
3550.366,0.02206727105531492,0.05788117734254217
3552.2940000000003,0.021893639888450167,0.05961298095457013
3554.223,0.021726954962922207,0.06338575099078247
3556.151,0.021567389098764878,0.07226815118224172
3558.08,0.021414776771223387,0.08279830318430081
3560.008,0.021269276209775256,0.09538593454530409
3561.937,0.021130736480225565,0.10682943738007966
3563.865,0.02099930122148308,0.11585756727139074
3565.7940000000003,0.020874834089921634,0.11717226992301688
3567.722,0.020757464133886572,0.1124564244742201
3569.651,0.020647069600313372,0.11908607504741742
3571.579,0.02054376494698751,0.12863140941872553
3573.508,0.02044744301140433,0.12592372852402478
3575.4359999999997,0.02035820366078589,0.10919905905022176
3577.365,0.020275954323189183,0.08796674253317383
3579.2929999999997,0.020200780275278163,0.07219738004009635
3581.222,0.020132603535673255,0.062348949077285276
3583.15,0.020071494790469657,0.05933515637702247
3585.079,0.020017390648852995,0.06014181282835307
3587.007,0.01997034720635682,0.058593789051603395
3588.9359999999997,0.019930315662728404,0.0555129270341278
3590.864,0.019897337522941427,0.06726934599065404
3592.7929999999997,0.019871378577303034,0.08387571532747817
3594.7209999999995,0.019852465740221703,0.10286511234529327
3596.65,0.019840579392571556,0.11953877975025673
3598.578,0.019835731858197647,0.1253406554863894
3600.507,0.0198379181085393,0.10645592602367537
3602.435,0.019847135876872812,0.07477886230365882
3604.364,0.019863394725200934,0.05345005923214263
3606.292,0.01988667779624187,0.044528059897076755
3608.2209999999995,0.019917009242560013,0.03559294729236362
3610.1490000000003,0.01995435761630837,0.02897872638247856
3612.078,0.019998761660616537,0.027045107741991425
3614.006,0.020050175337074094,0.02384500307190196
3615.935,0.02010865197936873,0.025459426459931822
3617.863,0.02017413095853371,0.02569062189702076
3619.792,0.020246680198820144,0.01900683238583556
3621.72,0.02032622448069077,0.018534586193523328
3623.6490000000003,0.02041284631896545,0.02107608524880966
3625.577,0.020506455903545273,0.024053839254647325
3627.506,0.020607150339806424,0.024210902829100767
3629.434,0.02071482522709367,0.0058994474909896955
3631.363,0.020829592261348395,0.008421393283986722
3633.2909999999997,0.020951332451341287,0.01670357505901965
3635.22,0.021080172083582482,0.01507367407026372
3637.1479999999997,0.021215977576284573,0.018293776795493488
3639.077,0.021358889806514014,0.019486152142338842
3641.005,0.021508760601925303,0.019277654034686398
3642.934,0.021665745430144767,0.017444231321093517
3644.862,0.021829681528261702,0.021292728256434468
3646.7909999999997,0.022000738954469412,0.022013715710445192
3648.719,0.022178740355295545,0.010763238821900445
3650.6479999999997,0.022363870379493278,-0.0023325350919161103
3652.5759999999996,0.022555937083026834,0.0014009010853750503
3654.505,0.022755139705212812,0.009859840583880453
3656.433,0.022961271711452014,0.0074789385382194595
3658.362,0.023174546931628015,0.005401213707207586
3660.29,0.023394744240576415,0.007988557083592251
3662.219,0.023622092058740662,0.00886603085645199
3664.147,0.023856354670396485,0.011582844763546651
3666.0759999999996,0.024097775086548978,0.014636178213764395
3668.0040000000004,0.024346103000912223,0.01745062195612812
3669.933,0.024601596015056515,0.009123259943702222
3671.861,0.024863989232125405,0.0033549534546227777
3673.79,0.025133554844257944,0.011581294038790713
3675.718,0.025410013364036033,0.00020708963808668823
3677.647,0.025693651574156817,-0.0013870711637655742
3679.575,0.02598417539664233,0.0024768576570318723
3681.5040000000004,0.026281886204753135,0.0024207318079833007
3683.4320000000002,0.02658647532994607,0.0058035984596020995
3685.361,0.026898258736043346,0.0065941096052080095
3687.289,0.027216913163945478,0.008123226328624944
3689.218,0.027542769168034553,-3.493534614029681e-05
3691.1459999999997,0.02787548889864233,-0.0018378865535498834
3693.075,0.028215417500719653,-0.0025250303582956546
3695.0029999999997,0.028562202534034853,0.0024971323492158914
3696.9320000000002,0.02891620373410042,0.0017049425309354493
3698.86,0.02927705407012482,0.0013440921949110507
