baseline wavenumber (cm-1),baseline absorbance (cm-1),baseline-subtracted absorbance (cm-1)
3199.3790000000004,0.12061298664989017,1.4432899320127035e-15
3201.308,0.1193407530817936,-0.0025734363836736884
3203.236,0.11807621169515414,-0.0006721437563829147
3205.165,0.11681805072504581,0.0015953133624638793
3207.093,0.11556757464111556,0.0014562598454993525
3209.0209999999997,0.11432412938519043,0.0012056811970421188
3210.95,0.11308707548777264,0.001351311315889947
3212.8779999999997,0.11185769553455494,0.0013900153761881029
3214.8070000000002,0.11063471423512539,-0.0003715563403885458
3216.736,0.10941877105898712,-0.0015177435899159653
3218.664,0.10821049088317736,0.0016053335384343947
3220.593,0.10700862030502734,0.001872347053608281
3222.5209999999997,0.105814405431925,0.0006537570060424214
3224.449,0.10462722138683134,0.0031057065505419867
3226.3779999999997,0.10344645788137008,0.00718505117014312
3228.3059999999996,0.10227333913898207,0.008595116861577212
3230.235,0.10110664823151083,0.004498649874311589
3232.164,0.09994699544732732,0.003727080179988018
3234.092,0.09879497648234903,0.0023960488898464583
3236.0209999999997,0.09764939629615377,0.003974983378131625
3237.949,0.0965114426338829,0.00483230518187161
3239.877,0.09538051979961715,0.00566267583888147
3241.8059999999996,0.0942560466861142,0.0064481540547818295
3243.7340000000004,0.09313918915455588,0.004522445010538223
3245.663,0.09202878863904118,0.002004202204601735
3247.592,0.09092542624681421,0.0032375708874557985
3249.52,0.0898296684926656,0.0069684023817315754
3251.448,0.0887409415665239,0.011392908996137652
3253.377,0.0876586862469857,0.011975059471893257
3255.305,0.08658402462355141,0.007914472615562329
3257.2340000000004,0.08551584190200323,0.0061099356893856704
3259.1620000000003,0.08445524558127637,0.009487579609189889
3261.091,0.08340113545771821,0.009406231565417311
3263.02,0.082354063457446,0.009701923122549916
3264.948,0.08131456691412886,0.008880442521811638
3266.8759999999997,0.08028210119881685,0.008438105692914477
3268.805,0.07925613627123518,0.007121860513555567
3270.7329999999997,0.07823773585863059,0.00781908947162735
3272.6620000000003,0.07722584352903894,0.009017254255262452
3274.591,0.0762209893227368,0.007870714039253879
3276.5190000000002,0.07522368868754015,0.01088870384758256
3278.448,0.07423290707922447,0.010008023933566479
3280.3759999999997,0.07324967174673702,0.009908222990105187
3282.304,0.07227346724225647,0.013488397579159761
3284.2329999999997,0.07130379270663134,0.016141863265969447
3286.1609999999996,0.07034165350485644,0.015317813888727105
3288.09,0.06938605156722133,0.011251748111257731
3290.0190000000002,0.06843748775287395,0.011157116287106472
3291.947,0.06749644832850876,0.01427226628671463
3293.875,0.06656243973215048,0.014456292357036604
3295.804,0.06563498299049186,0.01377824130530747
3297.732,0.064715039696841,0.015715518771041936
3299.6609999999996,0.06380165555317419,0.01823406122882054
3301.5890000000004,0.06289577756222897,0.01778745442211438
3303.518,0.0619964660165504,0.017428990053904636
3305.447,0.06110419259415778,0.016422892049722804
3307.375,0.06021941438062406,0.01909211144589451
3309.303,0.059341666995095466,0.023592561005184254
3311.232,0.058470500645393386,0.02188387134034786
3313.16,0.057606818562572215,0.0170800480062403
3315.0890000000004,0.056749724810861935,0.01779909744397845
3317.0170000000003,0.055900108030748186,0.020173841784027813
3318.946,0.055057086877024375,0.02132929741038736
3320.875,0.05422110384659007,0.019300948295717935
3322.803,0.053392586843886036,0.019329856715210925
3324.7309999999998,0.05257110066918713,0.01879885809225834
3326.66,0.05175622471144159,0.018753665552065812
3328.5879999999997,0.050948803839451884,0.021833750155096254
3330.5170000000003,0.05014800047969459,0.023636510598798455
3332.445,0.049354644910412304,0.024202355159483546
3334.3740000000003,0.04856791414864503,0.023831960038815714
3336.302,0.04778862388207017,0.021259045091159834
3338.2309999999998,0.04701596571829114,0.021198894140519342
3340.159,0.04625074075442548,0.026176043337277966
3342.0879999999997,0.045492155188636474,0.0269028262889619
3344.0159999999996,0.04474099552747468,0.025746178583100687
3345.945,0.0439964825596757,0.025527526666577205
3347.873,0.0432593882012231,0.02864422541448952
3349.802,0.04252894783141237,0.028010997649820624
3351.73,0.041805918775667195,0.026588223951669154
3353.659,0.04108955100384648,0.027551324092260465
3355.587,0.040380587250806954,0.02715768072990188
3357.5159999999996,0.03967829207697626,0.02689576258158255
3359.4440000000004,0.038983393626645935,0.02775246993664482
3361.373,0.03829517105080171,0.030687494777114743
3363.302,0.037613986598246996,0.03287947813929404
3365.23,0.036940187925326384,0.029581794321126398
3367.158,0.0362734200804109,0.02887161381907888
3369.087,0.03561334270054495,0.03117039952354117
3371.015,0.03496064015833866,0.032582171052956466
3372.9440000000004,0.03431463537646273,0.02949958144048015
3374.8720000000003,0.03367599813696209,0.028267106636924888
3376.801,0.033044065953076185,0.027813206710654903
3378.7290000000003,0.03241949401628297,0.027763633124277654
3380.658,0.031801634430385306,0.026555114014432002
3382.586,0.031191127796301288,0.02629576673085332
3384.515,0.030587340808391872,0.030275873003029252
3386.4429999999998,0.0299908994770135,0.03595129665075625
3388.3720000000003,0.029401185087094106,0.03553520968469592
3390.3,0.028818809058424932,0.03255394553722757
3392.2290000000003,0.028243167266493785,0.03224505528190913
3394.157,0.027674856540532033,0.03366749335811903
3396.086,0.02711328734659091,0.034254574539199334
3398.014,0.02655904192333658,0.036143481317035264
3399.9429999999998,0.0260115453273837,0.037300469770121025
3401.8709999999996,0.025471365206836794,0.037565260221275265
3403.8,0.02493794120887216,0.037072962544535404
3405.728,0.024411826391032676,0.03726986788449671
3407.657,0.023892474991059842,0.03687253514383926
3409.585,0.02338042547592778,0.039243115448095445
3411.514,0.022875146673941416,0.04190747721646204
3413.442,0.02237716246151855,0.04515970760208665
3415.3709999999996,0.02188595625752221,0.04337510476155948
3417.2990000000004,0.021402037347804992,0.042164049183263774
3419.228,0.020924903741798673,0.038745886780323424
3421.156,0.020455050134788877,0.03807294315520904
3423.085,0.019991989126770804,0.04035539327345283
3425.013,0.019536200822470207,0.04505525790402731
3426.942,0.01908721241244038,0.04784121423185972
3428.87,0.018645489410847205,0.04629474963297742
3430.7990000000004,0.0182105735988074,0.0453659973105377
3432.7270000000003,0.01778291589991987,0.04496049641572997
3434.656,0.01736207268587009,0.04537295212715842
3436.5840000000003,0.016948480289689982,0.047063541797400354
3438.513,0.016541709673630223,0.04813432303763021
3440.441,0.016142182580157538,0.048525462628481564
3442.37,0.01574948456208425,0.045766556536678604
3444.298,0.015364022771320762,0.042283981702014084
3446.2270000000003,0.014985397351237495,0.04212720487145083
3448.155,0.014614000863181431,0.04381928354305331
3450.0840000000003,0.01424944804108641,0.04776215467087286
3452.012,0.013892116855737768,0.05169675572411825
3453.941,0.01354163663163277,0.052603606955422544
3455.869,0.01319837074899155,0.051170469678771036
3457.798,0.012861963122874798,0.050996637562104596
3459.7259999999997,0.012532762542941,0.049653579806957615
3461.655,0.01221042751481427,0.0481743491679284
3463.583,0.011895292237587896,0.050098137552025634
3465.512,0.011587029807451188,0.05343673478330857
3467.44,0.011285959832932235,0.05228222357379175
3469.369,0.010991770000781997,0.05246702639259193
3471.297,0.010704765328972243,0.051865305265841544
3473.2259999999997,0.010424648094812028,0.05087401689435411
3475.1540000000005,0.010151708725709696,0.05165230329637738
3477.083,0.009885664089537727,0.05172753224791937
3479.011,0.00962679002314104,0.05395537255461802
3480.94,0.00937481798496087,0.05221496324101249
3482.868,0.009130009221271607,0.04920192619495822
3484.797,0.008892109781077906,0.05061826975341577
3486.725,0.00866136632009784,0.053585435944527915
3488.6540000000005,0.008437539477894163,0.052569659795188906
3490.5820000000003,0.00822086131962152,0.04589076236109424
3492.511,0.008011107075406088,0.04252080038248163
3494.4390000000003,0.007808494219840867,0.04431179654691675
3496.368,0.007612812573617234,0.04395075770666523
3498.296,0.007424265020759435,0.04693374154945096
3500.225,0.007242655972520495,0.04835635150633599
3502.153,0.007068173722370119,0.04224230366632076
3504.0820000000003,0.006900637272122978,0.036040580313674186
3506.01,0.0067402203246818004,0.03990407966832865
3507.9390000000003,0.0065867564724229055,0.04586833544062652
3509.867,0.006440404827687374,0.04876194367304654
3511.796,0.006301013573416725,0.04796403150940998
3513.724,0.006168727231390392,0.04612420629765135
3515.653,0.0060434085751097655,0.04399188883175398
3517.5809999999997,0.0059251875357908546,0.04096200055395549
3519.51,0.005813941477498474,0.03508317182368281
3521.438,0.005709785740885209,0.03606137522926933
3523.367,0.005612612280584628,0.037227256315207624
3525.295,0.005522521846678785,0.03878306283214972
3527.224,0.0054394209843646735,0.03874559334428562
3529.152,0.005363395853168029,0.03515173659947757
3531.0809999999997,0.0052943675888457165,0.03429534374127241
3533.009,0.005232407760354718,0.03719822060338329
3534.938,0.005177452094018875,0.03923577220178043
3536.866,0.005129557568237075,0.035897911502847046
3538.795,0.005088674499893031,0.03443079149577355
3540.723,0.005054845276818654,0.03469772339585908
3542.652,0.005028034806459303,0.035793590971132105
3544.58,0.0050082708860923475,0.03527096305533495
3546.509,0.004995533013726572,0.029437961080073682
3548.437,0.004989834396067039,0.0283941734322688
3550.366,0.004991169121687733,0.03470163859481479
3552.2940000000003,0.004999535806735622,0.035978656686449506
3554.223,0.005014943130346339,0.032482785254360436
3556.151,0.00503737511810165,0.03336969834244219
3558.08,0.005066855039700613,0.04080090200230668
3560.008,0.005103352330165123,0.044380466779361805
3561.937,0.005146904849752332,0.04643973106273802
3563.865,0.005197467442924264,0.051943093121834316
3565.7940000000003,0.005255092560501495,0.04357869509589041
3567.722,0.005319720456379073,0.024034441841796705
3569.651,0.005391418171946327,0.02608128749660754
3571.579,0.005470111370533104,0.03280450944445268
3573.508,0.005555881684088604,0.035006779950076505
3575.4359999999997,0.005648640185381026,0.03310476723755884
3577.365,0.0057484830969247724,0.028837034481882795
3579.2929999999997,0.005855306900926394,0.030779557151635384
3581.222,0.0059692224104619385,0.034808019499092735
3583.15,0.006090111517170982,0.036008511534482146
3585.079,0.0062180996246929965,0.03946163756689158
3587.007,0.006353054034107686,0.03678387194618182
3588.9359999999997,0.006495114739621499,0.035217683191461235
3590.864,0.006644134451745387,0.05299695033192697
3592.7929999999997,0.00680026775524567,0.06820008172403014
3594.7209999999995,0.00696335277007698,0.07987980093090863
3596.65,0.007133558671567286,0.09197701657132085
3598.578,0.007310708989106018,0.10010279489011398
3600.507,0.00749498748858457,0.08496255077939618
3602.435,0.007686203108832501,0.06116960174193997
3604.364,0.007884554206301075,0.04529570720419729
3606.292,0.008089835129254652,0.036593187167523133
3608.2209999999995,0.008302258824711473,0.027463100789463457
3610.1490000000003,0.008521605050372472,0.020392912318747514
3612.078,0.008748101343819314,0.019793521637937905
3614.006,0.008981512872189512,0.01050440311299261
3615.935,0.009222081763624601,0.01377854729907202
3617.863,0.009469558594700445,0.012716434275922395
3619.792,0.00972420008412378,-0.0006171196339943563
3621.72,0.009985742217910598,0.008254629628039023
3623.6490000000003,0.010254456305323956,0.01698710377016366
3625.577,0.01053006374181642,0.01818525044005259
3627.506,0.010812850427218024,0.015721713073166388
3629.434,0.01110252316641791,-0.01110252316641791
3631.363,0.011399382449809536,-0.0012592412601820646
3633.2909999999997,0.011703120491716845,0.01345239778604923
3635.22,0.012014052373096717,0.009960855014895187
3637.1479999999997,0.012331855717711449,0.010590839466464108
3639.077,0.012656860197081343,0.012632159164070567
3641.005,0.012988728844403497,0.014637607913826733
3642.934,0.013327805921761637,0.011983580113046566
3644.862,0.01367373987179299,0.015693353159590195
3646.7909999999997,0.014026889547141153,0.013127650188652473
3648.719,0.01438688879987815,-0.0012275961459324858
3650.6479999999997,0.01475411107321456,-0.01182128099003854
3652.5759999999996,0.01512817562865898,-0.0020496126874413045
3654.505,0.015509470499985412,0.014104005420892518
3656.433,0.01589760035813903,0.006980011999448199
3658.362,0.016292967827453708,0.006380898112296141
3660.29,0.016695162988312973,0.016126532685133643
3662.219,0.017104603055617673,0.017788805765239446
3664.147,0.017520863519186136,0.016740337291605734
3666.0759999999996,0.017944376184479083,0.01643984133142229
3668.0040000000004,0.01837470195075319,0.01568275244220141
3669.933,0.01881228721403616,-0.0023706852010355606
3671.861,0.01925667828301947,-0.0034224712514964173
3673.79,0.019708336144290683,0.01849219506420874
3675.718,0.020166792515981413,-0.0029801006868068747
3677.647,0.020632522975240875,-0.011120396044367764
3679.575,0.021105044649640803,-0.0014325067311393713
3681.5040000000004,0.02158484770688851,0.0014496808455682908
3683.4320000000002,0.022071434683994084,0.007193959878108336
3685.361,0.022565310339231814,0.01058419689498924
3687.289,0.023065962619046587,0.011814864947878756
3689.218,0.02357391087227434,-0.009467179901420986
3691.1459999999997,0.024088628454794758,-0.015854896715086886
3693.075,0.024610649306010757,-0.003237894710358291
3695.0029999999997,0.025139432191238598,0.007741325479831529
3696.9320000000002,0.02567552564044462,0.009358373849315593
3698.86,0.026218373828381658,0.008815525661378554
