baseline wavenumber (cm-1),baseline absorbance (cm-1),baseline-subtracted absorbance (cm-1)
3199.379,0.173247953098,1.29896093881e-14
3201.308,0.171354736309,0.00131022881755
3203.236,0.169472346682,0.00344774833445
3205.165,0.167598831531,0.00628917008673
3207.093,0.165736133327,0.00731284069474
3209.021,0.163883278283,0.00775929727525
3210.95,0.162039313033,0.00826468979694
3212.878,0.160206149413,0.00983731566326
3214.807,0.1583818858,0.0101822504576
3216.736,0.15656747556,0.0103427134623
3218.664,0.154763851628,0.0105146786456
3220.593,0.152969143025,0.0105837731779
3222.521,0.151185210517,0.0101792896343
3224.449,0.149411121168,0.0101877871506
3226.378,0.147645962467,0.0113540880735
3228.306,0.145891564542,0.0121127314247
3230.235,0.144146107478,0.0128711774708
3232.164,0.142410503787,0.0137237830827
3234.092,0.14068564555,0.0129983229125
3236.021,0.138969743496,0.0127441451122
3237.949,0.137264576683,0.0129577522365
3239.877,0.135569253029,0.0141538845428
3241.806,0.133882900877,0.0150863703251
3243.734,0.132207268647,0.0172739301806
3245.663,0.130540618132,0.0195062837182
3247.592,0.128883820989,0.0194935165224
3249.52,0.127237728447,0.0182079402072
3251.448,0.125601479065,0.0170611611857
3253.377,0.123974231824,0.0176552536706
3255.305,0.122357673866,0.0204665452793
3257.234,0.120750128262,0.0215637300217
3259.162,0.119153261727,0.0207671365343
3261.091,0.117565417761,0.0217656749312
3263.02,0.115987427167,0.0221935593894
3264.948,0.11442010032,0.0207813047135
3266.876,0.112862616633,0.020280514874
3268.805,0.111314175941,0.0194067378364
3270.733,0.109776383678,0.0199145594135
3272.662,0.108247644623,0.0223583899473
3274.591,0.10672875894,0.0251910328316
3276.519,0.105220506365,0.0260455908752
3278.448,0.10372132232,0.0252914644988
3280.376,0.102232761169,0.0247971084359
3282.304,0.100754043177,0.0229648489692
3284.233,0.0992844090334,0.0228557911081
3286.161,0.0978253824652,0.0254032135118
3288.09,0.096375449959,0.0257222959219
3290.019,0.0949353708254,0.0266130977888
3291.947,0.0935058839455,0.0277217012157
3293.875,0.0920862402248,0.0291700521031
3295.804,0.090675710993,0.0286998070501
3297.732,0.0892757586961,0.0280329949681
3299.661,0.0878849311015,0.0296589383011
3301.589,0.0865046702284,0.0312489434379
3303.518,0.0851335442709,0.0306835991638
3305.447,0.0837722716861,0.0308658562832
3307.375,0.0824215505013,0.0320750127252
3309.303,0.0810806724758,0.0333492274534
3311.232,0.0797489497927,0.0327316425453
3313.16,0.078427763191,0.0321868633126
3315.089,0.0771157421451,0.0317517904537
3317.017,0.0758142469672,0.0332315935261
3318.946,0.0745219275585,0.0341581998043
3320.875,0.0732394615224,0.0340874362842
3322.803,0.0719675060328,0.0337189894691
3324.731,0.0707053937024,0.0347998625394
3326.66,0.0694524775681,0.035867900477
3328.588,0.0682100566615,0.0353824329776
3330.517,0.0669768421644,0.03399515824
3332.445,0.0657541126816,0.0346436433075
3334.374,0.0645405998216,0.033835019303
3336.302,0.0633375617626,0.034777064741
3338.231,0.0621437505398,0.0362121071373
3340.159,0.0609604039047,0.0373379888983
3342.088,0.059786294319,0.0367490336907
3344.016,0.0586226391076,0.0362080997987
3345.945,0.0574682311592,0.0355355593998
3347.873,0.0563242673716,0.0362388580706
3349.802,0.0551895610604,0.0382613132952
3351.73,0.0540652886966,0.0395655108587
3353.659,0.0529502840225,0.0394848216077
3355.587,0.0518457030825,0.0403190598812
3357.516,0.0507504000456,0.0390436462498
3359.444,0.0496655105294,0.0386839284679
3361.373,0.0485899091297,0.0416880146548
3363.302,0.0475241611026,0.0433845116963
3365.23,0.0464688112747,0.0421923632931
3367.158,0.0454233046061,0.0410590566595
3369.087,0.0443871064808,0.038872774243
3371.015,0.0433612912359,0.0380901896091
3372.944,0.0423447947478,0.0377649798403
3374.872,0.0413386709267,0.0384504223716
3376.801,0.0403418760758,0.0395463277047
3378.729,0.0393554436785,0.0390012731921
3380.658,0.0383783504647,0.036219445957
3382.586,0.0374116094912,0.0353017231683
3384.515,0.0364542179146,0.0365843952462
3386.443,0.0355071683649,0.0376889298864
3388.372,0.0345694784255,0.0370982159038
3390.3,0.0336421202996,0.0373038010589
3392.229,0.0327241319974,0.0379055556605
3394.157,0.0318164652953,0.0391147992352
3396.086,0.0309181786303,0.039751891116
3398.014,0.0300302033519,0.0401512886121
3399.943,0.0291516183241,0.0378072414758
3401.871,0.0282833344696,0.0364457163745
3403.8,0.0274244510789,0.0365955125317
3405.728,0.0265758586482,0.0384543647421
3407.657,0.0257366768947,0.0389150970869
3409.585,0.0249077758877,0.0373184446723
3411.514,0.0240882957714,0.0364662882779
3413.442,0.0232790861883,0.0372328414373
3415.371,0.0224793077092,0.0347132021463
3417.299,0.0216897895498,0.0305622573521
3419.228,0.0209097127079,0.031964895601
3421.156,0.0201398859723,0.032205054895
3423.085,0.0193795107676,0.027237491153
3425.013,0.0186293754558,0.0250622752063
3426.942,0.0178887018882,0.0241424312362
3428.87,0.0171582580002,0.02310718221
3430.799,0.0164372860699,0.0199587009917
3432.727,0.0157265336056,0.0176136058869
3434.656,0.0150252633125,0.0160710168857
3436.584,0.014334202272,0.01488443717
3438.513,0.0136526336161,0.0129143329259
3440.441,0.0129812639994,0.0110087794657
3442.37,0.0123193969806,0.0116903068504
3444.298,0.0116677187878,0.0121516989824
3446.227,0.0110255534061,0.0139751541649
3448.155,0.0103935666371,0.0152487562175
3450.084,0.00977110289265,0.0132220235604
3452.012,0.00915880754739,0.014222320523
3453.941,0.00855604544014,0.014184579244
3455.869,0.00796344151867,0.0143644671036
3457.798,0.0073803810486,0.0128460416745
3459.726,0.00680746855091,0.0124997183489
3461.655,0.00624410971803,0.0115875389224
3463.583,0.00569088864414,0.0120105163897
3465.512,0.00514723144845,0.0114888748894
3467.44,0.00461370179834,0.0141542654512
3469.369,0.00408974623983,0.0161895421459
3471.297,0.00357590801352,0.0178727425475
3473.226,0.00307165409219,0.0170019332928
3475.154,0.00257750728967,0.0176588214276
3477.083,0.00209295500553,0.0201741025099
3479.011,0.0016184996268,0.0222236614972
3480.94,0.00115364897984,0.0236022895626
3482.868,0.000698885024899,0.0251275073738
3484.797,0.000253736015129,0.0272087121806
3486.725,-0.000181336516022,0.0322368302995
3488.654,-0.00060678388861,0.0331314477924
3490.582,-0.00102216499597,0.0314753642277
3492.511,-0.00142791073137,0.0310786738972
3494.439,-0.00182360041494,0.0310121175483
3496.368,-0.00220964451316,0.0310490258939
3498.296,-0.00258564277294,0.0316566525779
3500.225,-0.00295198523397,0.0315548862751
3502.153,-0.00330829206996,0.0363866302889
3504.082,-0.00365493289381,0.0410241838794
3506.01,-0.00399154830601,0.0426978557962
3507.939,-0.00431848749267,0.0451910741701
3509.867,-0.00463541148108,0.0518752275126
3511.796,-0.00494264903055,0.0549334000666
3513.724,-0.00523988159517,0.0555208883676
3515.653,-0.00552741750747,0.0576571557062
3517.581,-0.00580495864829,0.0627871682915
3519.51,-0.0060727929234,0.0669808086921
3521.438,-0.00633064264044,0.073371681759
3523.367,-0.00657877527836,0.0791058145991
3525.295,-0.00681693357161,0.0795931895101
3527.224,-0.00704536457235,0.0792721916218
3529.152,-0.0072638314418,0.0782357813053
3531.081,-0.00747256080535,0.0737334523448
3533.009,-0.00767133625102,0.0699371807876
3534.938,-0.00786036397739,0.0678657718415
3536.866,-0.00803944799926,0.0701155118828
3538.795,-0.00820877408844,0.0684155869865
3540.723,-0.00836816668653,0.065910418784
3542.652,-0.00851779113853,0.0676641067152
3544.58,-0.00865749231282,0.0745444831144
3546.509,-0.00878741512764,0.0731406446839
3548.437,-0.00890742487814,0.0655639496937
3550.366,-0.00901764605577,0.062950628973
3552.294,-0.00911796438248,0.0681509169752
3554.223,-0.00920848392293,0.0699513324017
3556.151,-0.00928911082585,0.0762627790761
3558.08,-0.00935992872911,0.0878694809377
3560.008,-0.00942086420824,0.103257263683
3561.937,-0.00947198047432,0.114762438374
3563.865,-0.00951322452966,0.12052737595
3565.794,-0.00954463915855,0.123447196522
3567.722,-0.0095661917901,0.130145945151
3569.651,-0.00957790478181,0.133177470131
3571.579,-0.00957976598957,0.134420562512
3573.508,-0.00957177734409,0.128422126076
3575.436,-0.00955394712806,0.111239482355
3577.365,-0.00952625684539,0.0903948002599
3579.293,-0.00948873520557,0.0775938095005
3581.222,-0.00944134328572,0.0680577387168
3583.15,-0.00938413022211,0.0617078944999
3585.079,-0.00931703666508,0.0585914225945
3587.007,-0.00924013217768,0.0637089990532
3588.936,-0.00915333698346,0.0737273286948
3590.864,-0.00905674107226,0.0785191387272
3592.793,-0.00895024424086,0.0889416523072
3594.721,-0.00883395690588,0.110831834193
3596.65,-0.00870775843729,0.132027226748
3598.578,-0.00857177967852,0.139945730957
3600.507,-0.00842587957275,0.123399194038
3602.435,-0.00827020939018,0.0879012111086
3604.364,-0.00810460764723,0.0611162320281
3606.292,-0.00792924604087,0.0485074831782
3608.221,-0.00774394266073,0.0381281031783
3610.149,-0.00754888963058,0.030942551816
3612.078,-0.00734388461326,0.0299272263701
3614.006,-0.00712914015932,0.0321126133222
3615.935,-0.00690443350481,0.0310013201924
3617.863,-0.00666999762709,0.0306118251819
3619.792,-0.00642558933539,0.0316381133423
3621.72,-0.00617146203387,0.0325486479229
3623.649,-0.00590735210499,0.0294268608485
3625.577,-0.00563353337968,0.027665879483
3627.506,-0.00534972181362,0.0237749214497
3629.434,-0.00505621166452,0.0368805824317
3631.363,-0.00475269846127,0.0379783125318
3633.291,-0.00443949688838,0.0297138828178
3635.22,-0.00411628204795,0.0252321215304
3637.148,-0.00378338905127,0.0215459484367
3639.077,-0.00344047257365,0.0230760735036
3641.005,-0.00308788815317,0.0228034446072
3642.934,-0.00272527003838,0.0200536335277
3644.862,-0.00235299419411,0.0154734834289
3646.791,-0.00197067444213,0.0159053757461
3648.719,-0.00157870717407,0.0253860456963
3650.648,-0.0011766857849,0.0291023908289
3652.576,-0.00076502709306,0.020146256245
3654.505,-0.000343304066703,0.00922645376851
3656.433,8.80460489334e-05,0.0110262772099
3658.362,0.000529470712472,0.0135589756638
3660.29,0.0009805122519,0.0109651564027
3662.219,0.00144163855262,0.00818243907802
3664.147,0.00191237151584,0.00796648221912
3666.076,0.00239319945375,0.00764581803336
3668.004,0.00288362384076,0.00845494888744
3669.933,0.00338415341585,0.0145986627168
3671.861,0.00389426922665,0.0146493980128
3673.79,0.00441450043893,0.00594196372766
3675.718,0.00494430767352,0.00740578835398
3677.647,0.00548424052298,0.00994161614335
3679.575,0.00603373918135,0.00782833501252
3681.504,0.006593373668,0.00451165008617
3683.432,0.00716256375017,0.00166332324063
3685.361,0.00774189987401,0.00147855903633
3687.289,0.00833078137997,0.000646222562214
3689.218,0.00892981914098,0.00546712819552
3691.146,0.00953839207073,0.00839160894008
3693.075,0.0101571314689,0.00647776189
3695.003,0.0107853958225,0.0040948730545
3696.932,0.0114238368579,0.00499822924948
3698.86,0.0120717926352,0.00435027347215
