baseline wavenumber (cm-1),baseline absorbance (cm-1),baseline-subtracted absorbance (cm-1)
3199.379,0.125501870009,8.881784197e-15
3201.308,0.123993583567,0.000467651650251
3203.236,0.122495924737,-0.000575374852887
3205.165,0.121007339931,-0.000485759015515
3207.093,0.119529372525,0.000553008956677
3209.021,0.118061248278,0.00123522397486
3210.95,0.116602213375,0.000683240986986
3212.878,0.115153780552,-0.00111708794061
3214.807,0.113714447285,-0.000498031637738
3216.736,0.112284967391,0.00216615966815
3218.664,0.110866074257,0.00437348907098
3220.593,0.109456296,0.00479216250598
3222.521,0.108057094289,0.00281220723727
3224.449,0.106667735737,0.00239624889831
3226.378,0.105287507382,0.00105384508898
3228.306,0.103917840254,0.00128230125971
3230.235,0.102557313537,0.00336859367027
3232.164,0.101206640192,0.00489363272844
3234.092,0.0998665127522,0.00928035877311
3236.021,0.0985355410444,0.0120492158545
3237.949,0.0972151050285,0.00871989952013
3239.877,0.0959045121719,0.00418191257283
3241.806,0.0946030903659,0.00695204963212
3243.734,0.093312188933,0.0107765606879
3245.663,0.0920304687641,0.0119066584976
3247.592,0.0907586019678,0.0118680027021
3249.52,0.0894972402234,0.0114756699151
3251.448,0.0882457216382,0.0144668023687
3253.377,0.0870034047436,0.0165844856839
3255.305,0.0857715775822,0.0190237322328
3257.234,0.0845489623248,0.0191582043587
3259.162,0.0833368265872,0.0180206989359
3261.091,0.082133912967,0.017981320026
3263.02,0.0809408527195,0.0183980737942
3264.948,0.0797582566702,0.0188821961753
3266.876,0.0785855037801,0.019497989599
3268.805,0.0774219934343,0.0172287697315
3270.733,0.0762689319681,0.0184515774831
3272.662,0.0751251232594,0.0225201815015
3274.591,0.0739911679234,0.0247806909667
3276.519,0.0728676461455,0.0230870693098
3278.448,0.0717533924467,0.0240926603179
3280.376,0.0706495620926,0.0275188398077
3282.304,0.0695555748977,0.0284541289333
3284.233,0.0684708711006,0.0278229730316
3286.161,0.0673965753295,0.0268736157147
3288.09,0.0663315731696,0.0271052003066
3290.019,0.0652764243824,0.0270312679253
3291.947,0.0642316682996,0.0272582740839
3293.875,0.0631967553761,0.0294647224365
3295.804,0.0621711564906,0.0289831950711
3297.732,0.0611559349909,0.0250742277505
3299.661,0.0601500377425,0.0229713612264
3301.589,0.0591545076666,0.0273925458056
3303.518,0.0581683120555,0.0306379145694
3305.447,0.0571919698169,0.0314585911858
3307.375,0.0562259794293,0.0338998671288
3309.303,0.055269832201,0.0362701455611
3311.232,0.0543230398642,0.0349127834452
3313.16,0.0533865840596,0.0344684649649
3315.089,0.05245949336,0.0366247075901
3317.017,0.0515427289793,0.0363456769643
3318.946,0.0506353399169,0.0328706744367
3320.875,0.0497378042271,0.0327093806511
3322.803,0.0488505795347,0.032962318474
3324.731,0.0479731980014,0.0338209999163
3326.66,0.0471052122134,0.0353394456255
3328.588,0.046247522104,0.0378877250404
3330.517,0.0453992379532,0.036914013841
3332.445,0.0445612392675,0.0388755342087
3334.374,0.0437326567539,0.0418192486338
3336.302,0.042914349492,0.0431323501946
3338.231,0.0421054686156,0.0422880419475
3340.159,0.0413068527775,0.0445295972376
3342.088,0.0405176735382,0.046200207792
3344.016,0.039738749124,0.0451040690303
3345.945,0.0389692715219,0.0433950264666
3347.873,0.0382100385314,0.0409241977973
3349.802,0.0374602625665,0.0418862450652
3351.73,0.0367207209998,0.0459508649701
3353.659,0.0359906466721,0.0474658377108
3355.587,0.0352707965292,0.0441282735203
3357.516,0.0345604238387,0.044298870612
3359.444,0.0338602651196,0.047491700917
3361.373,0.0331695940662,0.0484224407059
3363.302,0.0324887763854,0.0443933625006
3365.23,0.0318181573547,0.0374818527534
3367.158,0.0311573814832,0.0393561129068
3369.087,0.0305061137042,0.0461758836677
3371.015,0.0298650292565,0.0469675796589
3372.944,0.0292334631147,0.0471958303251
3374.872,0.0286120700908,0.0497246326283
3376.801,0.0280002055861,0.0533487280033
3378.729,0.027398503986,0.0533707267832
3380.658,0.0268063411185,0.0520741804624
3382.586,0.0262243309422,0.0516787318295
3384.515,0.0256518697119,0.0510043518589
3386.443,0.0250895509594,0.0526118540745
3388.372,0.0245367913663,0.0544266171043
3390.3,0.0239941640375,0.0524401834809
3392.229,0.0234611060817,0.0529216898346
3394.157,0.0229381701767,0.0560383788984
3396.086,0.022424813858,0.0559740540284
3398.014,0.0219215693768,0.0548230985702
3399.943,0.0214279146953,0.0584876821914
3401.871,0.0209443616379,0.0582742778041
3403.8,0.0204704085935,0.0569075354073
3405.728,0.0200065469599,0.063297304248
3407.657,0.0195522955528,0.0662270433737
3409.585,0.019108125343,0.0632420212253
3411.514,0.018673575573,0.0601265861575
3413.442,0.018249096787,0.0626106019899
3415.371,0.0178342486542,0.0639073868456
3417.299,0.017429461292,0.0612478863275
3419.228,0.0170343147964,0.0630601964742
3421.156,0.0166492188579,0.0603810045323
3423.085,0.0162737739995,0.0609085771578
3425.013,0.0159083694849,0.0618572223477
3426.942,0.0155526262637,0.0628315847947
3428.87,0.0152069131728,0.0653874464754
3430.799,0.0148708715888,0.0655066680858
3432.727,0.0145448499217,0.0669855250909
3434.656,0.0142285099748,0.0717828111613
3436.584,0.0139221797316,0.0736493354812
3438.513,0.0136255414219,0.069172396514
3440.441,0.0133389026024,0.0701893496972
3442.37,0.0130619659299,0.0707387012085
3444.298,0.0127950185342,0.0756933065441
3446.227,0.0125377834989,0.0754936528702
3448.155,0.012290527527,0.0670019014632
3450.084,0.0120529941289,0.0700363619815
3452.012,0.0118254295808,0.0733337738964
3453.941,0.0116075978198,0.0744411234983
3455.869,0.0113997246955,0.0756117986038
3457.798,0.0112015945718,0.0753409102296
3459.726,0.0110134128712,0.0743843431179
3461.655,0.0108349843847,0.0722126250361
3463.583,0.0106664941079,0.0721309384201
3465.512,0.0105077672585,0.075178576621
3467.44,0.0103589684056,0.0749114248017
3469.369,0.0102199431934,0.0738359549164
3471.297,0.0100908357642,0.0700688731208
3473.226,0.00997151218922,0.0712116476207
3475.154,0.00986209618384,0.074960000248
3477.083,0.00976247424602,0.0777640596668
3479.011,0.00967274966444,0.0772574029687
3480.94,0.0095928293638,0.0716287414438
3482.868,0.00952279620601,0.0726777496345
3484.797,0.00946257754255,0.0767130011495
3486.725,0.00941223580855,0.074875139103
3488.654,0.00937171878228,0.0714435041026
3490.582,0.00934106847207,0.0735468320637
3492.511,0.00932025308298,0.0724532231123
3494.439,0.00930929419656,0.0726208584366
3496.368,0.00930818044466,0.0720862398525
3498.296,0.00931691298203,0.0724146143605
3500.225,0.00933550086732,0.0735938431133
3502.153,0.00936392482848,0.0657007673781
3504.082,0.00940221435095,0.0623520563455
3506.01,0.00945032973589,0.0688585755507
3507.939,0.00950832089555,0.0712255313232
3509.867,0.00957612770429,0.071989120451
3511.796,0.00965382050113,0.076034039602
3513.724,0.00974131873366,0.0783649179994
3515.653,0.00983871316769,0.0780173466726
3517.581,0.00994590282401,0.075920871663
3519.51,0.0100629988952,0.0723548723269
3521.438,0.0101898799753,0.0711272129186
3523.367,0.0103266776837,0.063468935376
3525.295,0.0104732501876,0.0601175716056
3527.224,0.0106297495332,0.0552542088212
3529.152,0.0107960134609,0.0530501403853
3531.081,0.0109722144437,0.0626015245637
3533.009,0.0111581697951,0.0703929269399
3534.938,0.0113540724151,0.0709106602241
3536.866,0.0115597191904,0.0645617808602
3538.795,0.0117753234475,0.0657133048756
3540.723,0.0120006616466,0.067368589339
3542.652,0.0122359675409,0.0658727962315
3544.58,0.0124809971637,0.0594986854401
3546.509,0.0127360046952,0.0543169620489
3548.437,0.0130007257419,0.056940141538
3550.366,0.0132754349106,0.0604206127999
3552.294,0.013559847381,0.0537357151379
3554.223,0.0138542581869,0.0569569214351
3556.151,0.0141583620811,0.068646146157
3558.08,0.0144724745242,0.0786883462582
3560.008,0.0147962698422,0.0849338423584
3561.937,0.0151300839224,0.0871432406505
3563.865,0.0154735706642,0.0854912529484
3565.794,0.0158270863817,0.0744554366144
3567.722,0.0161902645473,0.0563140314196
3569.651,0.0165634819019,0.0632939930804
3571.579,0.0169463514913,0.070482133296
3573.508,0.017339270483,0.0677249163157
3575.436,0.0177418314962,0.0608890185998
3577.365,0.0181544521252,0.0611197821819
3579.293,0.0185767045622,0.0636016033323
3581.222,0.0190090268283,0.0606872230453
3583.15,0.0194509706891,0.0619121143205
3585.079,0.0199029945925,0.0644915267863
3587.007,0.020364629877,0.0456446696277
3588.936,0.0208363554175,0.0480153579151
3590.864,0.0213176821259,0.080955642447
3592.793,0.0218091093036,0.0969667928494
3594.721,0.0223101274357,0.107545831323
3596.65,0.0228212562506,0.125139423018
3598.578,0.0233419658066,0.133507321568
3600.507,0.0238727962587,0.118065948308
3602.435,0.0244131972384,0.0886627150228
3604.364,0.0249637293276,0.0672413651836
3606.292,0.0255238217311,0.0539829001934
3608.221,0.0260940554576,0.0420096542361
3610.149,0.0266738392849,0.0362368046047
3612.078,0.0272637746485,0.0249236305875
3614.006,0.0278632498996,0.00964508933013
3615.935,0.0284728869004,0.0179235550282
3617.863,0.0290920535753,0.0181408383685
3619.792,0.0297213922133,0.00901256108697
3621.72,0.030360250312,0.023051252771
3623.649,0.0310092905872,0.0356312633398
3625.577,0.0316678401097,0.0366051812186
3627.506,0.032336582022,0.0282380667195
3629.434,0.0330148229683,-0.0112585306404
3631.363,0.0337032665179,0.0104441104153
3633.291,0.0344011988879,0.0285139936725
3635.22,0.0351093440746,0.0289005619195
3637.148,0.0358269678685,0.0356447798319
3639.077,0.0365548146924,0.0319486726219
3641.005,0.03729212991,0.0325754532296
3642.934,0.0380396783711,0.0290754535403
3644.862,0.0387966850126,0.0294631957112
3646.791,0.0395639351109,0.0103779429848
3648.719,0.0403406331761,-0.0303209222694
3650.648,0.0411275849116,-0.0411275849116
3652.576,0.0419239744005,-0.00324005647878
3654.505,0.0427306277732,0.0204645607439
3656.433,0.043546708686,0.00908343383902
3658.362,0.0443730636959,0.0149734439358
3660.29,0.0452088360324,0.0232238941808
3662.219,0.0460548926795,0.027317693998
3664.147,0.0469103564398,0.0314399922916
3666.076,0.0477761147241,0.0296336699722
3668.004,0.0486512699082,0.0147662980691
3669.933,0.0495367298296,-0.0246762224001
3671.861,0.0504315764376,-0.0116162524711
3673.79,0.0513367379962,0.00426924603293
3675.718,0.0522512760279,-0.0502154931511
3677.647,0.0531761392237,-0.0325923931406
3679.575,0.0541103686792,-0.00122297355135
3681.504,0.0550549335122,0.0156091724213
3683.432,0.0560088543915,0.0240224808961
3685.361,0.0569731208617,0.0244309021849
3687.289,0.0579467331648,0.0138762730012
3689.218,0.0589307012721,-0.0289094741418
3691.146,0.059924004999,-0.0266297565405
3693.075,0.0609276747435,0.000663349212815
3695.003,0.0619406698942,0.0151658700836
3696.932,0.0629640412759,0.0144199676193
3698.86,0.0639967278504,0.0133872810448
