baseline wavenumber (cm-1),baseline absorbance (cm-1),baseline-subtracted absorbance (cm-1)
3199.3790000000004,0.15790609521882004,2.1316282072803006e-14
3201.308,0.15608462013591407,0.0037394979273628337
3203.236,0.15427393502362818,0.005088240251819087
3205.165,0.15247216157790433,0.006680269433922081
3207.093,0.15068116788940955,0.004832831908426982
3209.0209999999997,0.14890001736012337,0.002640465809794268
3210.95,0.14712779381616414,0.0029207253387939502
3212.8779999999997,0.14536633471066907,0.006975219923920584
3214.8070000000002,0.14361381280389907,0.00952477003244967
3216.736,0.1418711442697287,0.007958533280053803
3218.664,0.14013922485260366,0.007373157640067962
3220.593,0.1384162579556225,0.009158795112202966
3222.5209999999997,0.1367040299622886,0.00960244936652943
3224.449,0.13500164512816326,0.00939237084272504
3226.3779999999997,0.13330822813294674,0.006011492881912162
3228.3059999999996,0.1316255347226125,0.004503546445890461
3230.235,0.12995181936457811,0.006549241991936405
3232.164,0.12828795737915044,0.007931086389170616
3234.092,0.12663480365718627,0.007228028648484486
3236.0209999999997,0.12499064330894427,0.00817219910488376
3237.949,0.12335718101077475,0.01171054364302071
3239.877,0.12173356187181028,0.015047495441441239
3241.8059999999996,0.12011895142533291,0.011603478575677784
3243.7340000000004,0.11851502371015954,0.009276849331385062
3245.663,0.11692011490086784,0.009874588424716002
3247.592,0.11533505946417577,0.013275574317285876
3249.52,0.113760671437376,0.013821457340548182
3251.448,0.11219612656978839,0.013129861502585882
3253.377,0.11064062103486094,0.01365433499465496
3255.305,0.10909576759106088,0.01408122624296304
3257.2340000000004,0.10755996369332266,0.01544468605902738
3259.1620000000003,0.1060348016733137,0.016788912063672168
3261.091,0.1045186994127576,0.015328667412270125
3263.02,0.10301245052480468,0.01542482835925485
3264.948,0.10151682819316932,0.016788033830483773
3266.8759999999997,0.100031049020739,0.01825359668834814
3268.805,0.09855435003455426,0.021013526241600466
3270.7329999999997,0.0970882622859186,0.02039531195849653
3272.6620000000003,0.09563126493691598,0.015719184876083148
3274.591,0.09418412096052009,0.014421964150164168
3276.5190000000002,0.09274757290025093,0.014625317021916384
3278.448,0.09132013056104071,0.017156064728558018
3280.3759999999997,0.08990327392456621,0.018849379466720162
3282.304,0.0884962604473003,0.01969741184624052
3284.2329999999997,0.08709836800985471,0.019858571240119804
3286.1609999999996,0.0857110459563799,0.018103267194332417
3288.09,0.08433285515611644,0.01591934336809242
3290.0190000000002,0.08296451772845614,0.019097040949396682
3291.947,0.08160673536335494,0.018975494496141998
3293.875,0.08025879615746234,0.02043866669505956
3295.804,0.07892000863156667,0.02274227783361038
3297.732,0.07759176084946517,0.02307335589975157
3299.6609999999996,0.07627267496075518,0.02479171400113689
3301.5890000000004,0.07496411860244478,0.023895681256041357
3303.518,0.07366473435092047,0.01880317224970618
3305.447,0.07237520347199933,0.018282837567119348
3307.375,0.07109618680205898,0.022737837255355053
3309.303,0.06982701329132723,0.0252963062275251
3311.232,0.06856703231417427,0.02392816631111616
3313.16,0.06731755022723362,0.02196375978995002
3315.0890000000004,0.06607727088726278,0.020421768837795007
3317.0170000000003,0.06484748022411324,0.021671775815510497
3318.946,0.06362690252132808,0.02252037333028456
3320.875,0.06241617819114609,0.023191322061557607
3322.803,0.06121592721637015,0.020558559794647824
3324.7309999999998,0.06002551940080281,0.02129915461112475
3326.66,0.05884434497238544,0.024511563245546153
3328.5879999999997,0.057673628580609204,0.02609620867805873
3330.5170000000003,0.056512155789377516,0.02568080893315372
3332.445,0.055361130821388826,0.027164897683614964
3334.3740000000003,0.054219359667342815,0.025304040716767062
3336.302,0.05308802612314523,0.02403468690626953
3338.2309999999998,0.05196595660628134,0.026496087263121026
3340.159,0.050854314485878405,0.02627092558285682
3342.0879999999997,0.04975194660620019,0.023465985264819356
3344.0159999999996,0.04865999590958481,0.026194446625540824
3345.945,0.04757732966709227,0.029216868250627304
3347.873,0.04650507039426799,0.030426093054635395
3349.802,0.045442105788957576,0.02912678130292523
3351.73,0.044389537939924395,0.029102324993463213
3353.659,0.04334627497180321,0.028897230537142438
3355.587,0.04231339854655758,0.029732492487506867
3357.5159999999996,0.04128983721562207,0.02983974936074496
3359.4440000000004,0.04027665221416754,0.029854753830510727
3361.373,0.039272792520410604,0.030249597047971033
3363.302,0.03827878619926395,0.0309863507662671
3365.23,0.03729514088618302,0.03283727597422326
3367.158,0.03632133873231069,0.031143030013267126
3369.087,0.03535688231292866,0.031130533031254348
3371.015,0.034402771582847436,0.03547744675335007
3372.9440000000004,0.03345801680064753,0.033211850782492114
3374.8720000000003,0.03252359749435385,0.030855054077464583
3376.801,0.03159854434933962,0.0316729607552797
3378.7290000000003,0.030683816466840597,0.03494238387683657
3380.658,0.029778464959008488,0.035169983438848806
3382.586,0.028883428500300568,0.03738362901511483
3384.515,0.027997778629654135,0.03739947195156512
3386.4429999999998,0.027122433594737316,0.0344569659807199
3388.3720000000003,0.02625648536127656,0.03218534219355984
3390.3,0.02540083175014729,0.03476443662142792
3392.2290000000003,0.02455458515387221,0.03517047296803222
3394.157,0.023718622966534042,0.03744482593673082
3396.086,0.022892078007441086,0.03770127082506658
3398.014,0.02207580724389402,0.0382370402240122
3399.9429999999998,0.02126896392199029,0.03834086120688873
3401.8709999999996,0.020472384582234326,0.03873109262387109
3403.8,0.01968524289750917,0.04129322672747815
3405.728,0.018908354981544306,0.03963101629107246
3407.657,0.01814091493400838,0.039194069398347686
3409.585,0.017383718441831064,0.04243585095066882
3411.514,0.016635980031480813,0.04166130087421038
3413.442,0.0158984749630946,0.04142084172547289
3415.3709999999996,0.015170438189926472,0.04366813453826479
3417.2990000000004,0.01445262454533136,0.04437836706489806
3419.228,0.013744289409348909,0.0410575907079056
3421.156,0.0130461671885449,0.03906947013077211
3423.085,0.012357533689748124,0.03621064583112554
3425.013,0.011679102892735216,0.03638114172467111
3426.942,0.011010171031120564,0.038294893155678356
3428.87,0.010351431657898758,0.03999527813690573
3430.7990000000004,0.009702201433469781,0.04170687569177023
3432.7270000000003,0.009063153484035524,0.044045104880464425
3434.656,0.008433624896792224,0.04511383290165094
3436.5840000000003,0.007814268371152622,0.04299236258002548
3438.513,0.007204441421091445,0.04084620044689613
3440.441,0.006604776319239392,0.04311775476334434
3442.37,0.006014651006367444,0.04099181821429365
3444.298,0.005434677328306492,0.03861667211069042
3446.2270000000003,0.004864253652613115,0.03839916492617945
3448.155,0.0043039713983468175,0.04152237045953289
3450.0840000000003,0.003753249359839117,0.04434439543951374
3452.012,0.0032126585293603682,0.04351280391883572
3453.941,0.0026816381280418966,0.040666183564063374
3455.869,0.0021607387213506968,0.043997150695409104
3457.798,0.0016494199572179014,0.04891815307421865
3459.7259999999997,0.0011482119743178032,0.04710964711796972
3461.655,0.0006565948473671313,0.04294847944758917
3463.583,0.00017507828826168748,0.04412038314911815
3465.512,-0.000296837201506861,0.046427434593602435
3467.44,-0.0007586623368212031,0.047567517082601984
3469.369,-0.0012108761894040754,0.048258283447060624
3471.297,-0.0016530099009308685,0.0510020445719106
3473.2259999999997,-0.0020855221163280646,0.050597601364281264
3475.1540000000005,-0.002507964404063756,0.04862592659955567
3477.083,-0.002920774982275276,0.0525786138582478
3479.011,-0.003323525846219866,0.05468560004009415
3480.94,-0.0037166347872492622,0.05135183139090849
3482.868,-0.00409969422740275,0.05138818103625775
3484.797,-0.004473101531246471,0.054739451475651624
3486.725,-0.004836469547608857,0.054014676360506275
3488.6540000000005,-0.005190175214270454,0.05131218067267529
3490.5820000000003,-0.005533851806841739,0.054248094200453956
3492.511,-0.0058678558363141065,0.057717648619090234
3494.4390000000003,-0.006191841005097842,0.057246627217571344
3496.368,-0.006506143397384534,0.05512233666535149
3498.296,-0.006810437142377168,0.05775049576968927
3500.225,-0.007105037897481736,0.05836451429493472
3502.153,-0.007389640218683269,0.05568186704573286
3504.0820000000003,-0.007664539336602161,0.0550748294407164
3506.01,-0.007929450234012592,0.060925002644808046
3507.9390000000003,-0.00818464771474936,0.06514563022763742
3509.867,-0.00842986718836869,0.06685299465223205
3511.796,-0.008665363031919782,0.06753173319263928
3513.724,-0.008890891081748009,0.06578465434870484
3515.653,-0.009106685288116978,0.06263948625850002
3517.5809999999997,-0.009312521914154104,0.06425237837832087
3519.51,-0.009508614483333844,0.06782459547999808
3521.438,-0.00969475968558342,0.06844185359036503
3523.367,-0.009871150617581037,0.07071720338216192
3525.295,-0.01003760439603596,0.0720582250368933
3527.224,-0.0101942936908479,0.06777996032382072
3529.152,-0.010341056045515273,0.06804145026364905
3531.0809999999997,-0.010478043703141537,0.06878341113465858
3533.009,-0.01060511463401781,0.07015985030570482
3534.938,-0.010722400654458397,0.06748172542955189
3536.866,-0.01082978016154712,0.06610674367109981
3538.795,-0.010927364544802032,0.06646815095943825
3540.723,-0.0110150526280961,0.06746961646110972
3542.652,-0.011092935374172441,0.06551424336972511
3544.58,-0.011160932033675408,0.05720763172032228
3546.509,-0.01121911314256252,0.05233606452232609
3548.437,-0.011267418378277938,0.05607182553485357
3550.366,-0.011305897849982927,0.0566778780379944
3552.2940000000003,-0.01133451166190369,0.0567373217296292
3554.223,-0.011353289496423002,0.0648239252995162
3556.151,-0.011362211884556217,0.07239779259819157
3558.08,-0.011361288081889853,0.07746610967291323
3560.008,-0.011350519046231966,0.08486563074136999
3561.937,-0.011329893606383479,0.09505929823591996
3563.865,-0.01129943314693449,0.100976982929609
3565.7940000000003,-0.011259106069900326,0.09445378917916969
3567.722,-0.011208954186660236,0.08546145595558796
3569.651,-0.011148925472436844,0.09187671279680787
3571.579,-0.011079082165409204,0.09978271099387381
3573.508,-0.010999351814003688,0.09775716036550541
3575.4359999999997,-0.010909817083181395,0.08440572327948193
3577.365,-0.010810385094593755,0.0709331992055815
3579.2929999999997,-0.010701158939983912,0.06816906554061042
3581.222,-0.010582025314210597,0.06686677210486991
3583.15,-0.010453107735809652,0.06266982662795595
3585.079,-0.01031427247285066,0.05923017260425656
3587.007,-0.010165663470655062,0.05687090960428476
3588.9359999999997,-0.010007126570513947,0.06453254858608037
3590.864,-0.009838826144530799,0.07874866138156689
3592.7929999999997,-0.009660587607204008,0.09457416286243481
3594.7209999999995,-0.009472595757429758,0.11370083794887842
3596.65,-0.00927465558291729,0.13118105404647773
3598.578,-0.00906697230935194,0.13227833387813837
3600.507,-0.008849330497657348,0.10991068701236495
3602.435,-0.008621955800300896,0.08250146656548818
3604.364,-0.008384612351420628,0.06376164661807415
3606.292,-0.008137546230273074,0.04847414786779458
3608.2209999999995,-0.00788050114420713,0.037050621431278685
3610.1490000000003,-0.007613743599272027,0.034499925748266325
3612.078,-0.007336996876020407,0.03295056202309432
3614.006,-0.007050547907294202,0.02944517036761951
3615.935,-0.0067540995468569065,0.02783415615253748
3617.863,-0.0064479591543431525,0.023612621036482206
3619.792,-0.0061318091567201805,0.01658162215580994
3621.72,-0.005805977340411772,0.023881889601606865
3623.6490000000003,-0.0054701257056066765,0.028697660326045593
3625.577,-0.005124602465510719,0.029461507347750437
3627.506,-0.004769049193516395,0.028938664072723608
3629.434,-0.004403834529625783,0.014520078338379427
3631.363,-0.004028579620456441,0.017847441441946277
3633.2909999999997,-0.003643673532774727,0.02079671103403813
3635.22,-0.003248716986416156,0.02047857648302953
3637.1479999999997,-0.0028441194749468934,0.027021820879980396
3639.077,-0.002429461291402646,0.026238214955609518
3641.005,-0.002005172356138729,0.02478339938535079
3642.934,-0.001570812535412358,0.023756196139981256
3644.862,-0.0011268321763608924,0.021860178987237244
3646.7909999999997,-0.0006727707184488452,0.011923149774347497
3648.719,-0.0002090989356062778,0.00476484542302158
3650.6479999999997,0.00026466415949499833,0.004433101937745931
3652.5759999999996,0.0007480273661251147,0.013698551022634398
3654.505,0.0012414920984085143,0.02024895569295948
3656.433,0.0017445467288297323,0.016712948469795652
3658.362,0.002257713098298808,0.017486550522443522
3660.29,0.0027804591525111277,0.021957234165997264
3662.219,0.0033133271591658797,0.022855175822740215
3664.147,0.0038557646371728538,0.020916801823961606
3666.0759999999996,0.0044083342810061765,0.016467537547559807
3668.0040000000004,0.0049704631828006995,0.011742364068791478
3669.933,0.005542734463823251,0.003808827246476465
3671.861,0.006124554789408876,0.0041645385088822096
3673.79,0.006716527707617104,0.006030364034018465
3675.718,0.00731803945699383,-0.0046358399219688096
3677.647,0.007929714012384181,-0.0002571172267780142
3679.575,0.008550917185548457,0.0046190009383773045
3681.5040000000004,0.009182293378124484,0.00524710114325444
3683.4320000000002,0.009823187975083414,0.007842333100424703
3685.361,0.010474265804841565,0.007337823551268663
3687.289,0.011134851825591596,0.0013557981289209486
3689.218,0.011805631292535423,-0.010899940399984764
3691.1459999999997,0.012485908737073004,-0.006685342680264661
3693.075,0.013176389841202507,0.0012403694835727563
3695.0029999999997,0.013876358709531189,0.005924005184131165
3696.9320000000002,0.014586541450846369,0.0073794951406829234
3698.86,0.015306201742966152,0.00665983484856314
