449.3401,5.19558217378
451.2686,5.21652209818
453.1971,4.94170911387
455.1256,5.0669054089
457.0541,4.7478563857
458.9826,3.29406505997
460.9111,6.29924605494
462.8396,4.85546837341
464.7681,4.78663665663
466.6966,1.45665270281
468.6251,2.61453230315
470.5536,2.45039241501
472.4821,2.32834620516
474.4106,0.729018868544
476.3391,2.11586947543
478.2676,2.42057476431
480.1961,1.84561087348
482.1246,3.68885208293
484.0531,3.77004841733
485.9816,2.71312491539
487.9101,3.95740699
489.8386,3.95006771375
491.7671,1.69755253819
493.6956,3.56443305612
495.6241,1.42042581634
497.5526,1.78691302726
499.4811,3.08843394371
501.4096,1.54735997056
503.3381,1.0278062725
505.2666,1.9716982811
507.1951,2.93392287973
509.1236,3.90482991339
511.0521,3.91124510038
512.9806,4.37090151096
514.9091,1.93685408839
516.8376,1.03353862094
518.7661,3.76087103962
520.6946,4.23418526705
522.6231,3.95849846155
524.5516,1.16521353961
526.4801,1.0302666165
528.4086,5.04902981873
530.3371,6.40557542456
532.2656,5.54481342932
534.1941,5.42759060568
536.1226,4.06257015266
538.0511,3.10545004604
539.9796,2.97027762588
541.9081,4.75809717209
543.8365,5.33907025804
545.7651,5.66411714956
547.6935,7.19864259585
549.6221,5.99002784142
551.5506,6.01183470404
553.4791,6.14157540077
555.4076,8.15785295577
557.3361,8.53307744395
559.2646,10.1508841231
561.1931,8.57137035419
563.1216,8.10612971135
565.05,6.86898657585
566.9786,8.56535322891
568.907,9.99865031684
570.8356,9.08828811059
572.764,9.53033220101
574.6926,8.42954245179
576.621,10.3792025598
578.5496,13.1929310712
580.478,12.0639664203
582.4066,9.697431051
584.335,10.0886241554
586.2635,11.6263567858
588.192,10.4907182627
590.1205,10.6553320745
592.049,10.9206117463
593.9775,11.0335764769
595.906,11.2374152567
597.8345,11.4541832736
599.7631,11.9771146041
601.6915,11.9705719215
603.6201,11.8919590601
605.5485,12.4372268033
607.4771,12.4451638223
609.4055,12.3788184747
611.334,12.7424055948
613.2625,12.5090558604
615.191,12.4001305716
617.1195,12.5229995058
619.048,12.9665411683
620.9765,12.8904549656
622.905,12.9852581975
624.8335,13.2162148245
626.762,13.2914304361
628.6905,13.3343036331
630.619,13.4247105222
632.5475,13.4715369299
634.476,13.5776002998
636.4045,13.6552808775
638.333,13.7180455494
640.2615,13.917269431
642.19,14.0213331532
644.1185,13.9981541187
646.047,14.0798730946
647.9755,14.0582599204
649.904,14.1545219594
651.8325,14.2592451515
653.761,14.26493827
655.6895,14.3145538279
657.618,14.5903454052
659.5465,14.6314860986
661.475,14.6291782699
663.4035,14.7950083546
665.332,14.8821221397
667.2605,14.0265620179
669.189,13.9912718325
671.1175,14.9278662873
673.046,15.2347877176
674.9745,15.3710866821
676.903,15.4443343842
678.8315,15.3672727244
680.7599,15.4406245875
682.6885,15.5796102148
684.6169,15.7088061163
686.5455,15.7563762987
688.4739,15.6410080713
690.4025,15.6313879498
692.3309,15.6048769801
694.2595,15.685051876
696.188,15.7759332784
698.1165,15.769142663
700.045,15.8209682855
701.9734,15.8613672578
703.902,15.9297811094
705.8304,15.9042844432
707.759,15.8872649377
709.6874,15.9187547757
711.616,15.8928855566
713.5444,15.8491589541
715.473,15.8564096963
717.4014,15.8608822908
719.33,15.7989962796
721.2584,15.7085724808
723.187,15.7367692618
725.1154,15.7863861378
727.0439,15.8169877422
728.9724,15.8143945242
730.9009,15.7855189223
732.8294,15.7266152477
734.7579,15.7355371409
736.6864,15.727062771
738.6149,15.7427055394
740.5434,15.767756905
742.4719,15.7961814914
744.4004,15.7561762993
746.3289,15.7125446468
748.2574,15.7250495782
750.1859,15.830705276
752.1144,15.8635168374
754.0429,15.7844745672
755.9714,15.7767415548
757.8999,15.8559130668
759.8284,15.8434920619
761.7569,15.9333623207
763.6854,16.0913118
765.6139,15.9783800304
767.5424,15.860908529
769.4709,15.8803204441
771.3994,15.9136530837
773.3279,15.9845090557
775.2564,16.0346448511
777.1849,16.0958208275
779.1134,16.00991096
781.0419,15.9215789814
782.9704,15.9474881268
784.8989,15.9961417367
786.8274,15.9979325569
788.7559,16.0656359763
790.6844,15.9954532809
792.6129,15.9576400021
794.5414,15.9649603889
796.4699,15.9729587831
798.3984,16.0157184066
800.3269,16.0807951992
802.2554,16.1028274868
804.1839,16.0782560866
806.1124,16.0289265684
808.0409,16.1047582276
809.9694,16.1492354093
811.8979,16.1352066298
813.8264,16.2121495448
815.7549,16.3075044044
817.6833,16.2913476296
819.6119,16.3058087504
821.5403,16.3425590116
823.4689,16.4112181841
825.3973,16.4922788662
827.3259,16.5105565224
829.2543,16.51985794
831.1829,16.5590871867
833.1113,16.4961546107
835.0399,16.4878299939
836.9683,16.5151211819
838.8969,16.5550031841
840.8253,16.5373014918
842.7538,16.5112058847
844.6824,16.5308881776
846.6108,16.5278429766
848.5394,16.4378268375
850.4678,16.4205529697
852.3964,16.4677538316
854.3248,16.510271959
856.2534,16.5295549968
858.1818,16.5676353965
860.1104,16.5518240494
862.0388,16.5712029797
863.9673,16.6054518842
865.8958,16.6237293894
867.8243,16.6521440698
869.7528,16.698468748
871.6813,16.6839530055
873.6098,16.6887850165
875.5383,16.6927686226
877.4668,16.6665998279
879.3953,16.6207318915
881.3238,16.6188210967
883.2523,16.684746197
885.1808,16.7336270174
887.1093,16.6782377944
889.0378,16.7205555905
890.9663,16.7316181504
892.8948,16.7300752558
894.8233,16.7953676139
896.7518,16.8280627509
898.6803,16.858622721
900.6088,16.8810486356
902.5373,16.79343368
904.4658,16.8117107038
906.3943,16.8739585111
908.3228,16.8880876022
910.2513,16.8497351637
912.1798,16.8916849504
914.1083,16.9418335624
916.0368,16.9426518065
917.9653,16.8961117902
919.8938,16.9444464091
921.8223,16.9405709194
923.7508,16.9718557789
925.6793,17.0160606172
927.6078,17.024734657
929.5363,17.0876926002
931.4648,17.1530756898
933.3932,17.1271575657
935.3218,17.1456048086
937.2502,17.1737943596
939.1788,17.2058465793
941.1072,17.1816633513
943.0358,17.1250887919
944.9643,17.1452716148
946.8928,17.1973481044
948.8213,17.2070567751
950.7498,17.2698732791
952.6783,17.3300445194
954.6068,17.3639754658
956.5353,17.3276714026
958.4637,17.3764107765
960.3923,17.3969162542
962.3207,17.3967271884
964.2493,17.3310197715
966.1777,17.3465170566
968.1063,17.3884403545
970.0347,17.4328122547
971.9633,17.4913511586
973.8917,17.6072195756
975.8203,17.6312627439
977.7487,17.6339995264
979.6772,17.6042697964
981.6057,17.5665687419
983.5342,17.6395147883
985.4627,17.7238064114
987.3912,17.7178033557
989.3197,17.7462940041
991.2482,17.8009893775
993.1768,17.7822671005
995.1052,17.7175483382
997.0338,17.7464480468
998.9622,17.7355045077
1000.891,17.7223828748
1002.819,17.7406747815
1004.748,17.7671736849
1006.676,17.7318308236
1008.605,17.8473306333
1010.533,17.9292990214
1012.462,17.8107961035
1014.39,17.7070290137
1016.319,17.7126828148
1018.247,17.7429700497
1020.176,17.744068464
1022.104,17.703653605
1024.033,17.6338176737
1025.961,17.5851715115
1027.89,17.5672315676
1029.818,17.552307542
1031.747,17.5575145981
1033.675,17.5923093128
1035.604,17.639033448
1037.532,17.6350263489
1039.461,17.6681411217
1041.389,17.7160932485
1043.318,17.6972052195
1045.246,17.590304938
1047.175,17.5330581785
1049.103,17.5807550933
1051.032,17.5956870344
1052.96,17.6096268673
1054.889,17.6915756803
1056.817,17.657932924
1058.746,17.6565105477
1060.674,17.6334808366
1062.603,17.6029261185
1064.531,17.6345523555
1066.46,17.7043188751
1068.388,17.7347475017
1070.317,17.7421413092
1072.245,17.6905605254
1074.174,17.6938847886
1076.102,17.7446698206
1078.031,17.831742976
1079.959,17.8252063312
1081.888,17.7793853291
1083.816,17.7860809735
1085.745,17.8585448411
1087.673,17.8756725978
1089.602,17.9722720771
1091.53,17.9718781156
1093.459,17.9022202181
1095.387,17.873409165
1097.316,17.9413928315
1099.244,17.9968398449
1101.173,18.0459187467
1103.101,17.9580338863
1105.03,18.0150773375
1106.958,18.0841061482
1108.887,18.1116637236
1110.815,18.0422123942
1112.744,18.0884741024
1114.672,18.1396597415
1116.601,18.160813036
1118.529,18.1322845379
1120.458,18.1427027829
1122.386,18.209680087
1124.315,18.2612174862
1126.243,18.2531844853
1128.172,18.2988012888
1130.1,18.22398834
1132.029,18.24466467
1133.957,18.310951766
1135.886,18.3895275523
1137.814,18.3550508384
1139.743,18.3303320919
1141.671,18.3070521579
1143.6,18.3311954105
1145.528,18.3682935116
1147.457,18.4175182704
1149.385,18.3440600021
1151.314,18.3565294075
1153.242,18.3573699718
1155.171,18.4296958253
1157.099,18.479308047
1159.028,18.5081006366
1160.956,18.5068768461
1162.885,18.4827792598
1164.813,18.4670882299
1166.742,18.4781296604
1168.67,18.4614974563
1170.599,18.4919655623
1172.527,18.4711095127
1174.456,18.4538967752
1176.384,18.4994980255
1178.313,18.4914355761
1180.241,18.4434067241
1182.17,18.4920685413
1184.098,18.5268467793
1186.027,18.6303017943
1187.955,18.6451167772
1189.884,18.6198068204
1191.812,18.594036126
1193.741,18.6225391578
1195.669,18.5743621851
1197.598,18.5774757877
1199.526,18.5934594091
1201.455,18.624210705
1203.383,18.6196635273
1205.312,18.6651360041
1207.24,18.704436775
1209.169,18.7033975424
1211.097,18.5969928415
1213.026,18.6659398861
1214.954,18.6419073307
1216.883,18.6267673664
1218.811,18.6556915487
1220.74,18.7381107875
1222.668,18.8075182062
1224.597,18.8582185363
1226.525,18.8414782969
1228.453,18.8295292063
1230.382,18.7902129806
1232.311,18.8087695845
1234.239,18.8285499769
1236.167,18.9005860303
1238.096,18.9226546168
1240.025,18.8962148531
1241.953,18.8649377883
1243.882,18.8619461589
1245.81,18.9198013522
1247.739,19.0463538184
1249.667,19.034426769
1251.596,19.0046752247
1253.524,18.976114244
1255.453,18.9159008765
1257.381,18.8625854891
1259.31,18.8520180552
1261.238,18.8159525903
1263.167,18.8537433639
1265.095,18.89272888
1267.024,18.9605128656
1268.952,18.9263938062
1270.88,18.9690451121
1272.809,18.9664323178
1274.738,18.9678658122
1276.666,18.9700217921
1278.594,19.0570588054
1280.523,19.0850081806
1282.452,19.1344536532
1284.38,19.1620959286
1286.308,19.2119542514
1288.237,19.173264958
1290.166,19.2189294507
1292.094,19.2494304551
1294.022,19.2680301159
1295.951,19.2721901417
1297.88,19.3212423352
1299.808,19.3611434641
1301.736,19.319004345
1303.665,19.1249365174
1305.594,18.9770089476
1307.522,18.9241411523
1309.45,18.9660420433
1311.379,18.887507255
1313.307,18.8398040632
1315.236,18.7750477373
1317.164,18.7071124096
1319.093,18.5401183928
1321.021,18.4724467579
1322.95,18.39452928
1324.878,18.2695748834
1326.807,18.1618250353
1328.735,18.0937845914
1330.664,18.0357681894
1332.592,17.9534354401
1334.521,17.8514825228
1336.449,17.7430558274
1338.378,17.6406681609
1340.307,17.6481045412
1342.235,17.6729141204
1344.163,17.6692841653
1346.092,17.6549092578
1348.021,17.6641035221
1349.949,17.6038381627
1351.877,17.5291477561
1353.806,17.4135463463
1355.734,17.2873770406
1357.663,17.1642916729
1359.591,17.0488220733
1361.52,16.8402186655
1363.448,16.7725717935
1365.377,16.8223922613
1367.305,16.7929773348
1369.234,16.7618851721
1371.162,16.8281320593
1373.091,16.7954354326
1375.019,16.7754690368
1376.948,16.8513321086
1378.876,16.9260345396
1380.805,16.9475746941
1382.733,17.0046914778
1384.662,17.036030369
1386.59,16.9037157856
1388.519,16.8085771471
1390.447,16.8576781521
1392.376,16.7585681145
1394.304,16.5081097705
1396.233,16.3809591643
1398.161,16.397210068
1400.09,16.4042827613
1402.018,16.428931006
1403.947,16.3443250959
1405.875,16.3460153323
1407.804,16.407290131
1409.732,16.4181021328
1411.661,16.4297420999
1413.589,16.4994457787
1415.518,16.4809623518
1417.446,16.3533069067
1419.375,16.2222536937
1421.303,16.3509617953
1423.232,16.2859898921
1425.16,16.1924580091
1427.089,16.0649662594
1429.017,15.8743837862
1430.946,15.7539192698
1432.874,15.6704052871
1434.803,15.4517174534
1436.731,15.1421327835
1438.66,15.1090150365
1440.588,15.0765457797
1442.517,14.9394423566
1444.445,14.842432793
1446.374,14.720034685
1448.302,14.6090963281
1450.231,14.6102958858
1452.159,14.5804871125
1454.088,14.5359093972
1456.016,14.3853995868
1457.945,14.3072865925
1459.873,14.5365221033
1461.802,14.6509792901
1463.73,14.5760207077
1465.659,14.5828817042
1467.587,14.6664559509
1469.516,14.6226508343
1471.444,14.4332762492
1473.373,14.2432857732
1475.301,14.1906085936
1477.23,14.077941141
1479.158,13.9721627843
1481.087,13.7833303142
1483.015,13.5951749505
1484.944,13.4257028817
1486.872,13.2418678922
1488.801,13.0026731638
1490.729,12.8334408763
1492.658,12.792398395
1494.586,12.6712939373
1496.515,12.4497636697
1498.443,12.3476823826
1500.372,12.2830047299
1502.3,12.216452822
1504.229,12.0736155112
1506.157,11.7212186017
1508.086,11.5966884446
1510.014,11.7618538111
1511.943,11.859472222
1513.871,11.8754478306
1515.8,11.7726625715
1517.728,11.6758182012
1519.657,11.6346206206
1521.585,11.5516125335
1523.514,11.627200251
1525.442,11.6815168473
1527.371,11.7513709744
1529.299,11.8402572946
1531.228,11.843558726
1533.156,11.7518898807
1535.085,11.8054025955
1537.013,11.8074523649
1538.942,11.6258984179
1540.87,11.5463859294
1542.799,11.6887313841
1544.727,11.8013820921
1546.656,11.9926643179
1548.584,12.0540496004
1550.513,12.0743704455
1552.441,12.1682420058
1554.37,12.2276144082
1556.298,12.2368098615
1558.227,12.1132631399
1560.155,12.4731104319
1562.084,12.691407614
1564.012,12.702411303
1565.941,12.7978153207
1567.869,12.8514486145
1569.798,12.804075736
1571.726,12.9033066632
1573.655,13.0045268485
1575.583,13.0443972015
1577.512,13.2499295194
1579.44,13.4748250994
1581.369,13.6691806895
1583.297,13.8671555467
1585.226,14.099387206
1587.154,14.2209542878
1589.083,14.2784969548
1591.011,14.3135216102
1592.94,14.3228695527
1594.868,14.237998218
1596.797,14.1920991351
1598.725,14.0599087594
1600.654,13.8279009951
1602.582,13.6265056708
1604.511,13.463661046
1606.439,13.2395394337
1608.368,12.9954319776
1610.296,12.7986164094
1612.225,12.6222387755
1614.153,12.46662657
1616.082,12.3101142108
1618.01,12.1599542353
1619.939,12.0848699172
1621.867,11.9782424655
1623.796,11.8792726247
1625.724,11.8342442983
1627.653,11.8177620841
1629.581,11.8327615285
1631.51,11.7948747384
1633.438,11.749703691
1635.367,11.7158188953
1637.295,11.8741926855
1639.224,11.989048256
1641.152,12.0692334621
1643.081,12.1991223496
1645.009,12.3159748885
1646.938,12.5645907913
1648.866,13.0317011575
1650.795,13.3417866198
1652.723,13.7009834234
1654.652,14.737936159
1656.58,15.3127592395
1658.509,16.0199996408
1660.437,16.7345845118
1662.366,17.5368263914
1664.294,18.4419808732
1666.223,19.0334520133
1668.151,19.4844761758
1670.08,20.1358300322
1672.008,20.0670447011
1673.937,20.0742755634
1675.865,20.1262104408
1677.794,19.9114362166
1679.722,19.6537355642
1681.651,19.4736451343
1683.579,19.4036703666
1685.508,18.490266758
1687.436,18.0445480142
1689.365,17.6621070226
1691.293,17.3995892729
1693.222,17.2279454294
1695.15,17.0756796464
1697.079,16.9658051393
1699.007,17.0039774239
1700.936,17.2109965254
1702.864,17.3160281737
1704.793,17.3361016976
1706.721,17.3515681902
1708.65,17.4494158196
1710.578,17.440329898
1712.507,17.4057922871
1714.435,17.3516222286
1716.364,17.288604957
1718.292,17.3549331116
1720.221,17.63058672
1722.149,17.7661661794
1724.078,17.8991929999
1726.006,18.1409792534
1727.935,18.3482563377
1729.863,18.425300464
1731.792,18.5227795043
1733.72,18.5601757615
1735.649,18.7559455948
1737.577,18.83609097
1739.506,18.8316632541
1741.434,18.8488982833
1743.363,18.8976362182
1745.291,18.9534157346
1747.22,18.8955063336
1749.148,18.87900253
1751.077,19.0401253349
1753.005,19.2114496491
1754.934,19.3291688387
1756.862,19.3260113324
1758.791,19.5112324776
1760.719,19.6149295531
1762.648,19.7688138952
1764.576,20.0220583863
1766.505,20.1448100819
1768.433,20.0131107276
1770.362,19.9000987816
1772.29,19.9013775431
1774.219,20.1725209281
1776.147,20.3823766398
1778.076,20.5108256208
1780.004,20.3077097511
1781.933,20.3879013305
1783.861,20.4986616718
1785.79,20.4834027266
1787.718,20.5602689824
1789.647,20.5205767574
1791.575,20.2486060032
1793.504,20.2327394639
1795.432,20.393191704
1797.361,20.4294972787
1799.289,20.4440409152
1801.218,20.4649645636
1803.146,20.5299624141
1805.075,20.6379225296
1807.003,20.7216555112
1808.932,20.7352946816
1810.86,20.7257301513
1812.789,20.7951948026
1814.717,20.7475201116
1816.646,20.7230261428
1818.574,20.7872517191
1820.503,20.8229283294
1822.431,20.846074964
1824.36,20.6926445039
1826.288,20.5845486947
1828.217,20.5609962623
1830.145,20.6597723055
1832.074,21.0005493364
1834.002,21.0223182216
1835.931,20.9551086857
1837.859,21.0331900186
1839.788,21.1169093677
1841.716,21.043609839
1843.645,20.8373171679
1845.573,20.9113080271
1847.502,21.1938071148
1849.43,21.3331221845
1851.359,21.3224609257
1853.287,21.2797585517
1855.216,21.2908353861
1857.144,21.4101043189
1859.073,21.492338684
1861.001,21.4586611138
1862.93,21.4208304681
1864.858,21.5294220721
1866.786,21.5101599093
1868.715,21.3956653654
1870.644,21.434761837
1872.572,21.4742028835
1874.5,21.4081354479
1876.429,21.2722800158
1878.358,21.1932398502
1880.286,21.1515986171
1882.215,21.1031812626
1884.143,21.0529729871
1886.072,21.098041112
1888.0,21.0333842179
1889.929,20.9630753033
1891.857,21.0323412972
1893.786,21.1192263385
1895.714,21.3345375591
1897.643,21.4452945109
1899.571,21.4227611462
1901.5,21.5721007967
1903.428,21.9136984287
1905.357,22.0828415864
1907.285,22.0620091573
1909.214,21.9968801092
1911.142,22.2512223124
1913.071,22.2937030562
1914.999,22.2310477231
1916.927,22.2941832967
1918.856,22.1798290561
1920.785,21.9799217684
1922.713,22.4189550841
1924.641,21.3092785312
1926.57,20.8249127493
1928.499,20.4146080088
1930.427,20.1725204053
1932.355,20.0045191218
1934.284,19.7897269663
1936.213,19.5814171686
1938.141,19.3752053617
1940.069,19.26922109
1941.998,19.2087654518
1943.927,19.2038252329
1945.855,19.3057269106
1947.783,19.4033616941
1949.712,19.5288199339
1951.641,19.6417854156
1953.569,19.6221681201
1955.497,19.6241381268
1957.426,19.666240893
1959.354,19.6081195813
1961.283,19.6231735964
1963.211,19.6538787007
1965.14,19.6070535613
1967.068,19.5807382742
1968.997,19.555300822
1970.925,19.47726187
1972.854,19.4185871658
1974.782,19.4406105861
1976.711,19.5124227259
1978.639,19.5713629671
1980.568,19.6788839363
1982.496,19.7022802806
1984.425,19.7545835356
1986.354,19.8563481574
1988.282,19.9808619168
1990.21,20.1494930024
1992.139,20.3459114411
1994.068,20.5068032248
1995.996,20.6747494156
1997.924,20.840180429
1999.853,21.0752648168
2001.781,21.3169661026
2003.71,21.6488971127
2005.638,21.8130917555
2007.567,22.3362457896
2009.495,22.6784724225
2011.424,22.3009686128
2013.352,22.3198963474
2015.281,22.6999462878
2017.209,23.3234890188
2019.138,23.3792414064
2021.066,24.2582299143
2022.995,23.2381194682
2024.923,22.3412802708
2026.852,21.9921539439
2028.78,21.6281441542
2030.709,21.0432010678
2032.637,20.6216717212
2034.566,20.1926478403
2036.494,19.5636296688
2038.423,18.7665662506
2040.351,17.9331040229
2042.28,17.0076159587
2044.208,15.9956658336
2046.137,14.9452862945
2048.065,13.9152846443
2049.994,12.9213380151
2051.922,12.0275941205
2053.851,11.2535993846
2055.779,10.5417808561
2057.708,9.97916605594
2059.636,9.51680871347
2061.565,9.08102429772
2063.493,8.6984393692
2065.422,8.38787362944
2067.35,8.14593134646
2069.279,7.94979649106
2071.207,7.76538358299
2073.136,7.58432399342
2075.064,7.44481108276
2076.993,7.27945651356
2078.921,7.11422044651
2080.85,7.01135297332
2082.778,6.93945149974
2084.707,6.80452375182
2086.635,6.66738477526
2088.564,6.57702791875
2090.492,6.53782652188
2092.421,6.48357467572
2094.349,6.375939793
2096.278,6.29757076397
2098.206,6.24145054047
2100.135,6.17504076117
2102.063,6.11243954172
2103.992,6.06460664204
2105.92,6.03392454025
2107.849,6.00277263561
2109.777,5.92137836664
2111.706,5.87159752022
2113.634,5.83261423358
2115.563,5.78457757212
2117.491,5.75906796345
2119.42,5.72357338913
2121.348,5.66481737006
2123.277,5.62061290332
2125.205,5.60877383146
2127.134,5.58090284948
2129.062,5.5476416683
2130.991,5.52015272423
2132.919,5.48764663493
2134.848,5.46133645846
2136.776,5.41863441343
2138.705,5.35773126453
2140.633,5.33495725466
2142.562,5.32389297765
2144.49,5.28125331878
2146.419,5.236887879
2148.347,5.22450397702
2150.276,5.20102404147
2152.204,5.16423202428
2154.133,5.12724120952
2156.061,5.1049826402
2157.99,5.0863269398
2159.918,5.07278503155
2161.847,5.05925754606
2163.775,5.03214734082
2165.704,4.99283690204
2167.632,4.96101373221
2169.561,4.93948329717
2171.489,4.91289378537
2173.418,4.90075460481
2175.346,4.88272717444
2177.275,4.84483097255
2179.203,4.79933912033
2181.132,4.78397409521
2183.06,4.75956717649
2184.989,4.71402762019
2186.917,4.68157797554
2188.846,4.66926935428
2190.774,4.6493672895
2192.703,4.6139103552
2194.631,4.57432617408
2196.56,4.54881431399
2198.488,4.51987114994
2200.417,4.49641681343
2202.345,4.48448235327
2204.274,4.47539695207
2206.202,4.44695169327
2208.131,4.41527961838
2210.059,4.39183027435
2211.988,4.36874252161
2213.916,4.33727460444
2215.845,4.30639329133
2217.773,4.29012612659
2219.702,4.26433149651
2221.63,4.22764486453
2223.559,4.21805269015
2225.487,4.20198552497
2227.416,4.1881047664
2229.344,4.18054943794
2231.273,4.15500146612
2233.201,4.11423604578
2235.13,4.07815980002
2237.058,4.06254691157
2238.987,4.04604206294
2240.915,4.02744033411
2242.844,4.01942891191
2244.772,4.00185745795
2246.701,3.97306536068
2248.629,3.94416394695
2250.558,3.92601231827
2252.486,3.90911635982
2254.415,3.88497573993
2256.343,3.8647389156
2258.272,3.84758094977
2260.2,3.825541274
2262.129,3.81007853851
2264.057,3.78950206977
2265.986,3.76304351568
2267.914,3.7477265634
2269.843,3.73662379729
2271.771,3.71803801698
2273.7,3.69378004866
2275.628,3.68030095836
2277.557,3.65805556906
2279.485,3.63136898484
2281.414,3.61700363374
2283.342,3.59712963217
2285.271,3.58549629921
2287.199,3.56710097601
2289.128,3.54429190162
2291.056,3.51968288076
2292.985,3.49505041376
2294.913,3.47294228678
2296.842,3.44815914282
2298.77,3.43168854646
2300.699,3.40843932438
2302.627,3.37724787779
2304.556,3.34929562512
2306.484,3.32210502552
2308.413,3.30721011133
2310.341,3.27945359514
2312.27,3.23594695372
2314.198,3.20834771623
2316.127,3.19516910159
2318.055,3.16215180746
2319.984,3.11491446293
2321.912,3.07768924175
2323.841,3.0559903317
2325.769,3.01217971009
2327.698,2.97056488628
2329.626,2.94406379689
2331.555,2.93814530612
2333.483,2.92470151966
2335.412,2.89326463083
2337.34,2.85429765578
2339.269,2.83926727298
2341.197,2.81464681637
2343.126,2.79423779901
2345.054,2.79753966687
2346.983,2.85426457101
2348.911,2.87873477582
2350.84,2.82882699791
2352.768,2.73673825317
2354.697,2.65729739289
2356.625,2.60846766786
2358.554,2.58816655726
2360.482,2.56097452115
2362.411,2.55997089268
2364.339,2.57637041471
2366.268,2.56597427398
2368.196,2.5745755454
2370.125,2.6278561878
2372.053,2.67022477334
2373.982,2.69062008081
2375.91,2.708337847
2377.839,2.72792725403
2379.767,2.74234499609
2381.696,2.75671537429
2383.624,2.7534339445
2385.553,2.75058977419
2387.481,2.75079887024
2389.41,2.74415631403
2391.338,2.72990394595
2393.267,2.71718175782
2395.195,2.70766757021
2397.124,2.69817768323
2399.052,2.6849600823
2400.981,2.66525137178
2402.909,2.65081190962
2404.838,2.64101726388
2406.766,2.62628615935
2408.695,2.61682765236
2410.623,2.61032682451
2412.552,2.60075996161
2414.48,2.58671547613
2416.409,2.57606217403
2418.337,2.56440834796
2420.266,2.55233212025
2422.194,2.53999805332
2424.123,2.52898912639
2426.051,2.5184111851
2427.98,2.5109082332
2429.908,2.49726163193
2431.837,2.48322345666
2433.765,2.47870319048
2435.694,2.47167974168
2437.622,2.45783579097
2439.551,2.44695467813
2441.479,2.434653395
2443.408,2.42433413806
2445.336,2.41525095309
2447.265,2.40565332436
2449.193,2.39540740592
2451.122,2.38785411151
2453.05,2.37641692661
2454.979,2.37127025644
2456.907,2.36837671106
2458.836,2.36242590406
2460.764,2.35009271968
2462.693,2.34523033579
2464.621,2.34545342384
2466.55,2.34533713348
2468.478,2.33959594655
2470.406,2.3352687025
2472.335,2.33263982195
2474.264,2.3331834483
2476.192,2.33316098536
2478.121,2.33198762293
2480.049,2.33125642515
2481.978,2.33450147463
2483.906,2.33643529231
2485.834,2.33756796492
2487.763,2.33483741534
2489.692,2.32878824319
2491.62,2.31965217637
2493.549,2.31245742448
2495.477,2.29987613637
2497.406,2.2827098598
2499.334,2.26340265763
2501.262,2.24635724508
2503.191,2.23017772473
2505.12,2.21271415886
2507.048,2.19488299649
2508.977,2.17884057763
2510.905,2.16353173675
2512.833,2.14868045126
2514.762,2.12943626935
2516.69,2.11271463314
2518.619,2.10188308255
2520.548,2.0889735053
2522.476,2.0744038784
2524.405,2.06650660619
2526.333,2.05312281575
2528.261,2.03673951506
2530.19,2.02639464036
2532.119,2.02124422925
2534.047,2.01230802187
2535.976,2.00179465463
2537.904,1.9915766773
2539.833,1.98429037907
2541.761,1.9786266428
2543.689,1.97183549371
2545.618,1.9607899114
2547.547,1.95211963952
2549.475,1.94719856613
2551.404,1.9400663051
2553.332,1.93122287867
2555.26,1.92747993871
2557.189,1.92493738774
2559.117,1.91788513852
2561.046,1.90926826548
2562.975,1.90078175184
2564.903,1.89180002948
2566.832,1.8839231266
2568.76,1.87662422571
2570.688,1.87330831344
2572.617,1.86315950774
2574.545,1.8524419304
2576.474,1.84168914796
2578.403,1.8327024651
2580.331,1.82538304564
2582.26,1.82030805036
2584.188,1.81246211099
2586.116,1.80533687873
2588.045,1.7973391917
2589.973,1.7890842231
2591.902,1.77647978615
2593.831,1.76935623989
2595.759,1.7631917803
2597.688,1.75631153873
2599.616,1.74739881287
2601.544,1.74375318284
2603.473,1.7376469428
2605.401,1.72577578048
2607.33,1.71533788492
2609.259,1.71280125597
2611.187,1.70708070156
2613.115,1.70405352845
2615.044,1.70044448806
2616.972,1.69419993637
2618.901,1.68339177615
2620.829,1.67486093308
2622.758,1.66990268049
2624.687,1.66545158746
2626.615,1.65790595898
2628.543,1.65237608853
2630.472,1.64765193417
2632.4,1.64395783386
2634.329,1.63652505442
2636.258,1.6342512333
2638.186,1.63139939184
2640.115,1.62383558594
2642.043,1.61818528391
2643.971,1.61548480925
2645.9,1.60927875457
2647.828,1.60057580395
2649.757,1.59151652621
2651.686,1.58541898494
2653.614,1.5793163329
2655.542,1.57116019117
2657.471,1.56059417304
2659.399,1.54940328729
2661.328,1.54036278082
2663.256,1.53613755768
2665.185,1.52756768658
2667.114,1.51581921839
2669.042,1.50886295392
2670.97,1.50402031756
2672.899,1.49433826895
2674.827,1.48516214196
2676.756,1.47324894697
2678.684,1.45988754466
2680.613,1.45007002839
2682.542,1.44252111651
2684.47,1.4297103079
2686.398,1.41907539311
2688.327,1.41027420101
2690.255,1.39953407964
2692.184,1.38638128881
2694.112,1.37506894083
2696.041,1.36485601909
2697.969,1.35666443276
2699.898,1.34699187821
2701.826,1.33575884115
2703.755,1.32495741612
2705.683,1.31435691808
2707.612,1.3009903066
2709.54,1.29148064842
2711.469,1.28427832013
2713.397,1.27828726938
2715.326,1.26687075808
2717.254,1.25469067006
2719.183,1.24536518154
2721.111,1.23625378867
2723.04,1.22522455009
2724.969,1.22052639344
2726.897,1.21558026614
2728.825,1.20713318252
2730.754,1.1987584451
2732.682,1.19447527494
2734.611,1.18803633518
2736.539,1.18046397873
2738.468,1.17710808477
2740.396,1.17364140334
2742.325,1.16504383036
2744.253,1.15874122297
2746.182,1.15355940854
2748.11,1.14938877131
2750.039,1.14499535404
2751.967,1.13888713831
2753.896,1.13413223941
2755.824,1.1315909087
2757.753,1.12594259029
2759.681,1.12273782227
2761.61,1.11950110117
2763.538,1.11495287014
2765.467,1.11362463663
2767.395,1.10911701505
2769.324,1.09977637847
2771.252,1.09458016838
2773.181,1.09109288167
2775.109,1.08875776675
2777.038,1.08794143103
2778.966,1.08592973667
2780.895,1.07982165752
2782.823,1.07624667459
2784.752,1.07403802823
2786.68,1.07172370418
2788.609,1.06863681925
2790.537,1.06529551298
2792.466,1.0586249014
2794.394,1.05652416207
2796.323,1.05498642352
2798.251,1.05184999125
2800.18,1.04667270035
2802.108,1.04291174417
2804.037,1.03852734027
2805.965,1.0351473585
2807.894,1.03528104867
2809.822,1.03439040097
2811.751,1.03053452511
2813.679,1.02462610994
2815.608,1.01946582437
2817.536,1.0179119508
2819.465,1.01421215358
2821.393,1.00917344644
2823.322,1.005041975
2825.25,1.00168084605
2827.179,0.998306607238
2829.107,0.99438999402
2831.036,0.990193073839
2832.964,0.987033023221
2834.893,0.982192209294
2836.821,0.978065862359
2838.75,0.972547696533
2840.678,0.968697700648
2842.607,0.965517735851
2844.535,0.960652526271
2846.464,0.959036192578
2848.392,0.960103153689
2850.321,0.955023216889
2852.249,0.948716887955
2854.178,0.94329527168
2856.106,0.938917661158
2858.035,0.934404370756
2859.963,0.927399775988
2861.892,0.923432686342
2863.82,0.92123380837
2865.749,0.915081674318
2867.677,0.911672836199
2869.606,0.908582454842
2871.534,0.905160112054
2873.463,0.90248468275
2875.391,0.898089262553
2877.32,0.893472148923
2879.248,0.890050935711
2881.177,0.884170391007
2883.105,0.878872090374
2885.034,0.876931889758
2886.962,0.872620378209
2888.891,0.865969667168
2890.819,0.862358327396
2892.748,0.858236180663
2894.676,0.852998390302
2896.605,0.846354916583
2898.533,0.841770968987
2900.462,0.837144472109
2902.39,0.832543876761
2904.319,0.826681419227
2906.247,0.820729074786
2908.176,0.816626653771
2910.104,0.817652062816
2912.033,0.815618569451
2913.961,0.814286557669
2915.89,0.812185513994
2917.818,0.808483088527
2919.747,0.807186781998
2921.675,0.806449991353
2923.604,0.799023554271
2925.532,0.793546675844
2927.461,0.79275488115
2929.389,0.792091284513
2931.318,0.790354525673
2933.246,0.786601847295
2935.175,0.780194670837
2937.103,0.778026527512
2939.032,0.77572659564
2940.96,0.775522233158
2942.889,0.776316877735
2944.817,0.776513516117
2946.746,0.774793048942
2948.674,0.774482828316
2950.603,0.772477861935
2952.531,0.772673025186
2954.46,0.77290030184
2956.388,0.772870921222
2958.317,0.771303501666
2960.245,0.769311697646
2962.174,0.767105969254
2964.102,0.764615821809
2966.031,0.761763985111
2967.959,0.759693236937
2969.888,0.758100432578
2971.816,0.756482607499
2973.745,0.752140518891
2975.673,0.746092903854
2977.602,0.739459418258
2979.53,0.735106972794
2981.459,0.728513570446
2983.387,0.72304530602
2985.316,0.719502602528
2987.244,0.712577238449
2989.173,0.703279123891
2991.101,0.69760590342
2993.03,0.693225026715
2994.958,0.686962737926
2996.887,0.678351870906
2998.815,0.668359819387
3000.744,0.659220958201
3002.672,0.654701807404
3004.601,0.64554073866
3006.529,0.636780514405
3008.458,0.630530992555
3010.386,0.622146796769
3012.315,0.61128437222
3014.243,0.603665018056
3016.172,0.596844130764
3018.1,0.591157075016
3020.029,0.584180061463
3021.957,0.577058073017
3023.886,0.568802991028
3025.814,0.561129012013
3027.743,0.555907207953
3029.671,0.54997175177
3031.6,0.542729551957
3033.528,0.538984926842
3035.457,0.533826734395
3037.385,0.530421839305
3039.314,0.525426964505
3041.242,0.52198334962
3043.171,0.51574406478
3045.099,0.509704700652
3047.028,0.504257638025
3048.956,0.499617396316
3050.885,0.494831145615
3052.813,0.49058556271
3054.742,0.485251733205
3056.67,0.480967316486
3058.599,0.477505838209
3060.527,0.475143517191
3062.456,0.468782652945
3064.384,0.463746821813
3066.313,0.463026558114
3068.241,0.462102126606
3070.17,0.459603635124
3072.098,0.457447606724
3074.027,0.45432998368
3075.955,0.449988884541
3077.884,0.445638900099
3079.812,0.442140110554
3081.741,0.439356100939
3083.669,0.437095297371
3085.598,0.433599692325
3087.526,0.430090102327
3089.455,0.42737358659
3091.383,0.424561018961
3093.312,0.420854521798
3095.24,0.41826736647
3097.169,0.416712586195
3099.097,0.413054291037
3101.026,0.407796660036
3102.954,0.408289563086
3104.883,0.408692702297
3106.811,0.405425028438
3108.74,0.4020532762
3110.668,0.400456959721
3112.597,0.398262626253
3114.525,0.396148279047
3116.454,0.394430118117
3118.382,0.393228304968
3120.311,0.389917933537
3122.239,0.386843611995
3124.167,0.385967336898
3126.096,0.386175390645
3128.025,0.385673317727
3129.953,0.384195251052
3131.882,0.380555842551
3133.81,0.378925444596
3135.739,0.378541304305
3137.667,0.377840026326
3139.595,0.375857043744
3141.524,0.373453441419
3143.453,0.372548712351
3145.381,0.372156079188
3147.31,0.368372798277
3149.238,0.366842775224
3151.167,0.364662070588
3153.095,0.362773407963
3155.023,0.361592332275
3156.952,0.362379832408
3158.881,0.362798062405
3160.809,0.361241402477
3162.738,0.360712110667
3164.666,0.358421644545
3166.594,0.354549673026
3168.523,0.353193793707
3170.452,0.352661546775
3172.38,0.352070493913
3174.309,0.3512647787
3176.237,0.350067482604
3178.166,0.346776386715
3180.094,0.347881370646
3182.022,0.347654951868
3183.951,0.347678140949
3185.88,0.34616537925
3187.808,0.345767440273
3189.737,0.344251250342
3191.665,0.343630740678
3193.594,0.341920615996
3195.522,0.34205518206
3197.45,0.342418662112
3199.379,0.342546097727
3201.308,0.340126236827
3203.236,0.338489563255
3205.165,0.340232330415
3207.093,0.341840797205
3209.021,0.339295455179
3210.95,0.341238891867
3212.878,0.340001609001
3214.807,0.336272540614
3216.736,0.337352251239
3218.664,0.33752655944
3220.593,0.336140817333
3222.521,0.335683643862
3224.449,0.335388767777
3226.378,0.336131670328
3228.306,0.336649351756
3230.235,0.336655215365
3232.164,0.336178983312
3234.092,0.335459416701
3236.021,0.335029816141
3237.949,0.334284449295
3239.877,0.330718097769
3241.806,0.330772725687
3243.734,0.32825778185
3245.663,0.325932062341
3247.592,0.325226754448
3249.52,0.324759711693
3251.448,0.323974194243
3253.377,0.322077408513
3255.305,0.322310864901
3257.234,0.322311755221
3259.162,0.319483138417
3261.091,0.317680872385
3263.02,0.314972540436
3264.948,0.312662878767
3266.876,0.311462892817
3268.805,0.309189061644
3270.733,0.306250082457
3272.662,0.305994023188
3274.591,0.304915958411
3276.519,0.303466738687
3278.448,0.302280788913
3280.376,0.300201188123
3282.304,0.298994496862
3284.233,0.298777302153
3286.161,0.298728811479
3288.09,0.296834176108
3290.019,0.296155174378
3291.947,0.294669909606
3293.875,0.293308569067
3295.804,0.295414678378
3297.732,0.296527711419
3299.661,0.297951766323
3301.589,0.296060580196
3303.518,0.295889679943
3305.447,0.294188960487
3307.375,0.289688194804
3309.303,0.288399237983
3311.232,0.291272251589
3313.16,0.292230759103
3315.089,0.293772812904
3317.017,0.294841126007
3318.946,0.296108579544
3320.875,0.29769991393
3322.803,0.295670607006
3324.731,0.292095981922
3326.66,0.28984839287
3328.588,0.289180994495
3330.517,0.290928973848
3332.445,0.289384181471
3334.374,0.289525586809
3336.302,0.289403664029
3338.231,0.289146991247
3340.159,0.290631640105
3342.088,0.291826231776
3344.016,0.293412889932
3345.945,0.296705150645
3347.873,0.300554882954
3349.802,0.302928506462
3351.73,0.303233121982
3353.659,0.306711439902
3355.587,0.309640522254
3357.516,0.309356617814
3359.444,0.307574375978
3361.373,0.299572239563
3363.302,0.292992510882
3365.23,0.289470965607
3367.158,0.285776140362
3369.087,0.284783143356
3371.015,0.285011257354
3372.944,0.282821443163
3374.872,0.280901868995
3376.801,0.281730108952
3378.729,0.282407288934
3380.658,0.286693586065
3382.586,0.291526191305
3384.515,0.292997086558
3386.443,0.293932561946
3388.372,0.296570227148
3390.3,0.29840697189
3392.229,0.295758290009
3394.157,0.293010171772
3396.086,0.289094197683
3398.014,0.287188541142
3399.943,0.292841894267
3401.871,0.290882187593
3403.8,0.286646777858
3405.728,0.283323582714
3407.657,0.280649407222
3409.585,0.277595330367
3411.514,0.27321696884
3413.442,0.270647683139
3415.371,0.268026739042
3417.299,0.264580831414
3419.228,0.256779700409
3421.156,0.248336393632
3423.085,0.249706318885
3425.013,0.253007918305
3426.942,0.253671631345
3428.87,0.253451698369
3430.799,0.253299581828
3432.727,0.253951131853
3434.656,0.253748121278
3436.584,0.254598788868
3438.513,0.254864030193
3440.441,0.251546378146
3442.37,0.251125057304
3444.298,0.253517861306
3446.227,0.246466218548
3448.155,0.246339111221
3450.084,0.257485479132
3452.012,0.261408566068
3453.941,0.262127177201
3455.869,0.263786725396
3457.798,0.264477795591
3459.726,0.263199038559
3461.655,0.263748884773
3463.583,0.269998481993
3465.512,0.274317948353
3467.44,0.278261566981
3469.369,0.286546493513
3471.297,0.291787577342
3473.226,0.295120354082
3475.154,0.298067101182
3477.083,0.307197161728
3479.011,0.313102810623
3480.94,0.31258833846
3482.868,0.31635122245
3484.797,0.324215326116
3486.725,0.322830225252
3488.654,0.319222171603
3490.582,0.319797385632
3492.511,0.316736822201
3494.439,0.30710806054
3496.368,0.301798120953
3498.296,0.304075599718
3500.225,0.301464305576
3502.153,0.295446514662
3504.082,0.302442943837
3506.01,0.317779806641
3507.939,0.325296776474
3509.867,0.335378887276
3511.796,0.356548294854
3513.724,0.376476456873
3515.653,0.395027618871
3517.581,0.414923649136
3519.51,0.438246533874
3521.438,0.453430283757
3523.367,0.464564128196
3525.295,0.474726315251
3527.224,0.464612902321
3529.152,0.449629955359
3531.081,0.440781414744
3533.009,0.431121586131
3534.938,0.413451070998
3536.866,0.403401633817
3538.795,0.409420806133
3540.723,0.411570665874
3542.652,0.399012913424
3544.58,0.36938662436
3546.509,0.345567060417
3548.437,0.342949476264
3550.366,0.341373160166
3552.294,0.337698119517
3554.223,0.360703956983
3556.151,0.395170585187
3558.08,0.435453201448
3560.008,0.478182959099
3561.937,0.514849821143
3563.865,0.527593718097
3565.794,0.519430412971
3567.722,0.573434735944
3569.651,0.693324868389
3571.579,0.772799447959
3573.508,0.771431430316
3575.436,0.687696894915
3577.365,0.579701455062
3579.293,0.48501005528
3581.222,0.410614829494
3583.15,0.351564108287
3585.079,0.300794093387
3587.007,0.248178303582
3588.936,0.25432358156
3590.864,0.282882846474
3592.793,0.278406406696
3594.721,0.265082686608
3596.65,0.27331876941
3598.578,0.272517873204
3600.507,0.257055257633
3602.435,0.255733348719
3604.364,0.25678220204
3606.292,0.239662160201
3608.221,0.22581106414
3610.149,0.250103879004
3612.078,0.259411000994
3614.006,0.237699709346
3615.935,0.211102139669
3617.863,0.165759698523
3619.792,0.148344846174
3621.72,0.182581487119
3623.649,0.202769199357
3625.577,0.182804020565
3627.506,0.133726121914
3629.434,0.0968897606031
3631.363,0.143273070528
3633.291,0.155094559538
3635.22,0.16630359684
3637.148,0.173132041173
3639.077,0.170647587484
3641.005,0.166511750636
3642.934,0.159500926502
3644.862,0.145587776645
3646.791,0.0910953128887
3648.719,0.034421072195
3650.648,0.0576889056343
3652.576,0.126166079143
3654.505,0.138729374942
3656.433,0.125678404433
3658.362,0.147075877958
3660.29,0.157859959127
3662.219,0.158823324163
3664.147,0.158658513814
3666.076,0.153472672361
3668.004,0.121314020889
3669.933,0.0735144206971
3671.861,0.100462317965
3673.79,0.0960071283296
3675.718,0.0433820631431
3677.647,0.0902839786867
3679.575,0.119227825571
3681.504,0.14089116086
3683.432,0.145801750056
3685.361,0.138393293878
3687.289,0.108068239006
3689.218,0.0645381077873
3691.146,0.0801325882417
3693.075,0.120169161699
3695.003,0.136830025916
3696.932,0.13772931363
3698.86,0.13784795452
3700.789,0.120866088438
3702.717,0.113192684125
3704.646,0.12835884176
3706.574,0.128595748731
3708.503,0.107255052432
3710.431,0.0668306814826
3712.36,0.070157264943
3714.288,0.113395915678
3716.217,0.134730099401
3718.145,0.125993430198
3720.074,0.113084194699
3722.002,0.09627227472
3723.931,0.0929738366206
3725.859,0.0925060648866
3727.788,0.107194401265
3729.716,0.113297094636
3731.645,0.0795223133556
3733.573,0.0424012007248
3735.502,0.018418021516
3737.43,0.0600087074006
3739.359,0.0951164395163
3741.287,0.0989415453518
3743.216,0.0738629844949
3745.144,0.0466914126881
3747.073,0.0691893695701
3749.001,0.0454471095865
3750.93,0.015792089384
3752.858,0.0629472599093
3754.787,0.108756145109
3756.715,0.10961076481
3758.644,0.0947970852261
3760.572,0.108970214082
3762.5,0.135631993295
3764.429,0.124233430156
3766.358,0.116427267344
3768.286,0.117984424534
3770.215,0.107473594513
3772.143,0.132943427297
3774.072,0.149881219649
3776.0,0.148027925866
3777.928,0.12897222262
3779.857,0.11664670446
3781.786,0.138129713919
3783.714,0.134915349746
3785.643,0.131840545652
3787.571,0.142978608867
3789.5,0.146686405907
3791.428,0.149624970969
3793.356,0.148525135037
3795.285,0.126595614707
3797.214,0.107434435288
3799.142,0.106984253741
3801.071,0.0634658791463
3802.999,0.0767213857473
3804.927,0.109660594078
3806.856,0.100132162746
3808.785,0.123117469597
3810.713,0.143178474225
3812.642,0.14339123144
3814.57,0.117211984645
3816.499,0.0843563667294
3818.427,0.0919022958684
3820.355,0.0572954208171
3822.284,0.0681467252551
3824.213,0.114153183347
3826.141,0.114027173619
3828.07,0.122220475273
3829.998,0.129568456119
3831.927,0.11390015314
3833.855,0.104172731454
3835.783,0.0859167606057
3837.712,0.0650307329647
3839.641,0.0642467146635
3841.569,0.0907130669385
3843.498,0.10179489812
3845.426,0.123937887757
3847.354,0.136999046973
3849.283,0.117859412591
3851.211,0.0764643563726
3853.14,0.00672356505194
3855.069,0.0595815105702
3856.997,0.103677615317
3858.926,0.127797170805
3860.854,0.122872915501
3862.782,0.0992761689908
3864.711,0.0889388485328
3866.639,0.113080526749
3868.568,0.104429441754
3870.497,0.0811382822119
3872.425,0.102321992508
3874.354,0.102904852287
3876.282,0.131561129871
3878.21,0.132204031382
3880.139,0.104042426655
3882.067,0.110826138447
3883.996,0.116093018566
3885.925,0.107038319958
3887.853,0.131401571859
3889.781,0.12648313967
3891.71,0.105678857467
3893.638,0.123992717266
3895.567,0.140987364714
3897.495,0.129826526369
3899.424,0.100973318134
3901.353,0.0901007388846
3903.281,0.0869175743763
3905.209,0.0988968754049
3907.138,0.132019321095
3909.066,0.15039424543
3910.995,0.15291848816
3912.924,0.151866313382
3914.852,0.142283441268
3916.781,0.127459307281
3918.709,0.129177159884
3920.637,0.13539476426
3922.566,0.134140966583
3924.494,0.120942775381
3926.423,0.13398302918
3928.352,0.13889326377
3930.28,0.127143818983
3932.208,0.1262269893
3934.137,0.139439464008
3936.065,0.149406435351
3937.994,0.149941135901
3939.922,0.148521787474
3941.851,0.139290531338
3943.78,0.137728996031
3945.708,0.145982718526
3947.636,0.13989033286
3949.565,0.133379303171
3951.493,0.14101050795
3953.422,0.14773813078
3955.35,0.148613310427
3957.279,0.147871876023
3959.208,0.147078748021
3961.136,0.147347632171
3963.064,0.149512125708
3964.993,0.153558831036
3966.921,0.152156165944
3968.85,0.149116465982
3970.778,0.14737307266
3972.707,0.147628994413
3974.635,0.147289080027
3976.564,0.151662185177
3978.492,0.156616769897
3980.421,0.157254089233
3982.349,0.155015070067
3984.278,0.154157418032
3986.206,0.153414168597
3988.135,0.15484929764
3990.063,0.152444466978
3991.992,0.151752512732
3993.92,0.152206088055
3995.849,0.154406992581
3997.777,0.155006258848
3999.706,0.153899161629
4001.634,0.155112770723
4003.563,0.1560195759
4005.491,0.154650454898
4007.42,0.155154889586
4009.348,0.157004015287
4011.277,0.156751605716
4013.205,0.157395615692
4015.134,0.157474029185
4017.063,0.155680204285
4018.991,0.154506728219
4020.919,0.155569354285
4022.848,0.15543259486
4024.776,0.152272279681
4026.705,0.153325792305
4028.633,0.155721377908
4030.562,0.155907251714
4032.49,0.157719270304
4034.419,0.157193987397
4036.347,0.154884226199
4038.276,0.154554911064
4040.204,0.155534900039
4042.133,0.15562047445
4044.061,0.152322366082
4045.99,0.154497767254
4047.918,0.159015153394
4049.847,0.15821870341
4051.775,0.160141335249
4053.704,0.162157501147
4055.632,0.161756396486
4057.561,0.162473477986
4059.489,0.158180470626
4061.418,0.157017816012
4063.346,0.160524121277
4065.275,0.163215440453
4067.203,0.162380688423
4069.132,0.159922206632
4071.06,0.158802766204
4072.989,0.159857170038
4074.917,0.16032641846
4076.846,0.160254459939
4078.774,0.159208395109
4080.703,0.157812275085
4082.631,0.157896209809
4084.56,0.158507531683
4086.488,0.160492346708
4088.417,0.16128410198
4090.345,0.161216149611
4092.274,0.160679178206
4094.202,0.162362162093
4096.131,0.164102549571
4098.059,0.161933379883
4099.988,0.161392014589
4101.917,0.162602561266
4103.845,0.160522564003
4105.773,0.1574273583
4107.702,0.158891176877
4109.63,0.1616388227
4111.559,0.163581212569
4113.487,0.163945775562
4115.416,0.166197515355
4117.344,0.163219717386
4119.273,0.160780658538
4121.201,0.160669854019
4123.13,0.162422445296
4125.058,0.16355350341
4126.987,0.163517979513
4128.916,0.159965897103
4130.844,0.158467737443
4132.772,0.159822698543
4134.701,0.161237936638
4136.629,0.161169100396
4138.558,0.16073707392
4140.486,0.162439615856
4142.415,0.163936094414
4144.343,0.162087967891
4146.272,0.160694496941
4148.2,0.163432631126
4150.129,0.165690372681
4152.057,0.164508202097
4153.986,0.163841459744
4155.914,0.161977060447
4157.843,0.162267777891
4159.771,0.163788507988
4161.7,0.165736673921
4163.628,0.166792952666
4165.557,0.163229783303
4167.485,0.162285943835
4169.414,0.16417466782
4171.342,0.16474582691
4173.271,0.168257558964
4175.199,0.166526102171
4177.128,0.164794202503
4179.056,0.165979877812
4180.985,0.166679404494
4182.913,0.166119382795
4184.842,0.166084323967
4186.77,0.168027337001
4188.699,0.170432555812
4190.627,0.170385813046
4192.556,0.168001253385
4194.484,0.164643062342
4196.413,0.163622087739
4198.341,0.163790211007
4200.27,0.167516124513
4202.198,0.167693407965
4204.127,0.166339659512
4206.055,0.167513762337
4207.984,0.168816458535
4209.912,0.170711666824
4211.841,0.173332339279
4213.769,0.172619391129
4215.698,0.171142912449
4217.626,0.169413659915
4219.555,0.169299356432
4221.483,0.168053502607
4223.412,0.167787248758
4225.34,0.169653985274
4227.269,0.170537928265
4229.197,0.168512539056
4231.125,0.167564810491
4233.054,0.169228609613
4234.983,0.168386188964
4236.911,0.166997477534
4238.84,0.168298795126
4240.768,0.17127943714
4242.697,0.173263580201
4244.625,0.175353132443
4246.554,0.176313921881
4248.482,0.171316714867
4250.411,0.171024427966
4252.339,0.171256760503
4254.268,0.173360042144
4256.196,0.176199864421
4258.125,0.177835569622
4260.053,0.178410845403
4261.982,0.175177775261
4263.91,0.172915084846
4265.839,0.172160098046
4267.767,0.174890151986
4269.696,0.17717128981
4271.624,0.174106287165
4273.553,0.172800414275
4275.481,0.174543029172
4277.41,0.177395440194
4279.338,0.175970975348
4281.267,0.17491246844
4283.195,0.173541642233
4285.124,0.176209073767
4287.052,0.178552273226
4288.98,0.177797427715
4290.909,0.175271561306
4292.838,0.174565132599
4294.766,0.17764208433
4296.695,0.181432177807
4298.623,0.177939884927
4300.552,0.17391201796
4302.48,0.176991292733
4304.409,0.18044675815
4306.337,0.17812419512
4308.266,0.177283246749
4310.194,0.179470649622
4312.123,0.178551817304
4314.051,0.176533061537
4315.979,0.177736654599
4317.908,0.179680963782
4319.836,0.181436827435
4321.765,0.180591729511
4323.694,0.183809498738
4325.622,0.184631847111
4327.551,0.180301375822
4329.479,0.179376353916
4331.408,0.181690391387
4333.336,0.181631919758
4335.265,0.180244950833
4337.193,0.179293868684
4339.122,0.180124436485
4341.05,0.183118083359
4342.979,0.184656904314
4344.907,0.181919109731
4346.835,0.180320543174
4348.764,0.179677131998
4350.693,0.179993568136
4352.621,0.181782822835
4354.55,0.184748798427
4356.478,0.18422548884
4358.407,0.186208382019
4360.335,0.184035035167
4362.264,0.17941714819
4364.192,0.179873994665
4366.121,0.183661865604
4368.049,0.185485462644
4369.978,0.183402806913
4371.906,0.180134552842
4373.834,0.185416057968
4375.763,0.189422521568
4377.691,0.188050586101
4379.62,0.18393280308
4381.549,0.182274311184
4383.477,0.185367406772
4385.406,0.187844288708
4387.334,0.190470188478
4389.263,0.190187147038
4391.191,0.186752772815
4393.12,0.188541173673
4395.048,0.190382351272
4396.977,0.187717608851
4398.905,0.185695246879
4400.833,0.187077442112
4402.762,0.186710907533
4404.69,0.188057808111
4406.619,0.19225195623
4408.547,0.194144777073
4410.476,0.188723783606
4412.405,0.186182791652
4414.333,0.190559313271
4416.262,0.192200392731
4418.19,0.190891067938
4420.119,0.191349751579
4422.047,0.189963042376
4423.976,0.19080745645
4425.904,0.192653861095
4427.833,0.19110165306
4429.761,0.189764955205
4431.689,0.192912105034
4433.618,0.194119639588
4435.546,0.193327292834
4437.475,0.191671445111
4439.403,0.190740811807
4441.332,0.189268261269
4443.261,0.188872416437
4445.189,0.190822994332
4447.118,0.194548756359
4449.046,0.194561546175
4450.975,0.192539794902
4452.903,0.193233300751
4454.832,0.195189423505
4456.76,0.19457086497
4458.688,0.196602230967
4460.617,0.197858679191
4462.545,0.195421702348
4464.474,0.194294055978
4466.402,0.19631673688
4468.331,0.196262852442
4470.26,0.196959106694
4472.188,0.197824519962
4474.117,0.198000706051
4476.045,0.197045905665
4477.974,0.20086265348
4479.902,0.201340143799
4481.831,0.198928277781
4483.759,0.197919405352
4485.688,0.197961512599
4487.616,0.199626894494
4489.544,0.202801020174
4491.473,0.204804594877
4493.401,0.203928317746
4495.33,0.200261482121
4497.258,0.201776383646
4499.187,0.203267334221
4501.116,0.203683392278
4503.044,0.198978901121
4504.973,0.196586006879
4506.901,0.196402154489
4508.83,0.199963106949
4510.758,0.204718190212
4512.687,0.202620961169
4514.615,0.197655012166
4516.543,0.196880698381
4518.472,0.199088086534
4520.4,0.202431753233
4522.329,0.206549050547
4524.257,0.208891243475
4526.186,0.205624072693
4528.114,0.203382928403
4530.043,0.203691209511
4531.972,0.203891556712
4533.9,0.20392587044
4535.829,0.203747493614
4537.757,0.203678553498
4539.686,0.201596140142
4541.614,0.200012421005
4543.542,0.201523254813
4545.471,0.199680404377
4547.399,0.198561819096
4549.328,0.203806961683
4551.256,0.205740925428
4553.185,0.205458991584
4555.113,0.207185145389
4557.042,0.204919595173
4558.971,0.203626485369
4560.899,0.204866273435
4562.828,0.206829158186
4564.756,0.206870545893
4566.685,0.209329331261
4568.613,0.206957507569
4570.542,0.203733686001
4572.47,0.205548103197
4574.398,0.20560037042
4576.327,0.204889779413
4578.255,0.20788828974
4580.184,0.21042960562
4582.112,0.212995795347
4584.041,0.211135151065
4585.969,0.209865937099
4587.898,0.207966665043
4589.827,0.209724575852
4591.755,0.212613159978
4593.684,0.213976796153
4595.612,0.210462309651
4597.541,0.207236278667
4599.469,0.206208063409
4601.397,0.208558800607
4603.326,0.206491015052
4605.254,0.204806140113
4607.183,0.206661537575
4609.111,0.211642984597
4611.04,0.21478473996
4612.968,0.216162290316
4614.897,0.215026509237
4616.825,0.215945325858
4618.754,0.216762360259
4620.683,0.217777408933
4622.611,0.214304018925
4624.54,0.211159216578
4626.468,0.211512031826
4628.396,0.212889507094
4630.325,0.209379071536
4632.253,0.209808796747
4634.182,0.213770085823
4636.11,0.217091336344
4638.039,0.2154474913
4639.967,0.216121680115
4641.896,0.218166575083
4643.824,0.220702625572
4645.753,0.216813041096
4647.682,0.216454706424
4649.61,0.21605002713
4651.539,0.215498615933
4653.467,0.214968053253
4655.396,0.215431762431
4657.324,0.214350919402
4659.252,0.213503518366
4661.181,0.213142746059
4663.109,0.2161575811
4665.038,0.215743624334
4666.966,0.217798073884
4668.895,0.219192696073
4670.823,0.217053527071
4672.752,0.216730283607
4674.68,0.21611587418
4676.609,0.213866729794
4678.538,0.212450469378
4680.466,0.212149295758
4682.395,0.217287251563
4684.323,0.221105193781
4686.251,0.220349486387
4688.18,0.221900872546
4690.108,0.223410228092
4692.037,0.219651625777
4693.965,0.218819980996
4695.894,0.219268157938
4697.822,0.220678402743
4699.751,0.219751998056
4701.679,0.221826343421
4703.608,0.22216228269
4705.536,0.221645626295
4707.465,0.220042646695
4709.394,0.220509280064
4711.322,0.221005433654
4713.25,0.219760209277
4715.179,0.220698201964
4717.107,0.220793185471
4719.036,0.220506472276
4720.964,0.219654243987
4722.893,0.219242628042
4724.821,0.222376201717
4726.75,0.221031726171
4728.678,0.21941505748
4730.607,0.224287586369
4732.535,0.227168486523
4734.464,0.225857533458
4736.392,0.229026926044
4738.321,0.226811102274
4740.25,0.22504078745
4742.178,0.226578609962
4744.106,0.224403796968
4746.035,0.225505694344
4747.963,0.229345103843
4749.892,0.226450966816
4751.82,0.228243895905
4753.749,0.226755131002
4755.677,0.223440460004
4757.606,0.221800023379
4759.534,0.228599308614
4761.463,0.228957748686
4763.391,0.225109323057
4765.32,0.226785906617
4767.249,0.229357211542
4769.177,0.22751517073
4771.105,0.229113620593
4773.034,0.231522542299
4774.962,0.229208854541
4776.891,0.227021807895
4778.819,0.2319937808
4780.748,0.230327007253
4782.676,0.226352056335
4784.605,0.224430830558
4786.533,0.227860028664
4788.462,0.227594090253
4790.39,0.230419495739
4792.319,0.231666960761
4794.247,0.231284863212
4796.176,0.229683332391
4798.104,0.235617440171
4800.033,0.235110125377
4801.961,0.232818152584
4803.89,0.236607130756
4805.818,0.239579202062
4807.747,0.232991850845
4809.675,0.228367645535
4811.604,0.230818618935
4813.532,0.237950136803
4815.461,0.24054327476
4817.389,0.241432852234
4819.318,0.242034070657
4821.246,0.242019122884
4823.175,0.238094419522
4825.103,0.234385630148
4827.032,0.232982229397
4828.96,0.232182351096
4830.889,0.233334281655
4832.817,0.237543968985
4834.746,0.238861965192
4836.674,0.239138451093
4838.603,0.239340381453
4840.531,0.240601979684
4842.46,0.237629641183
4844.388,0.233831337756
4846.317,0.23453667456
4848.245,0.239505247701
4850.174,0.240014252497
4852.102,0.241316027578
4854.031,0.243447033816
4855.959,0.24187930334
4857.888,0.238694779979
4859.816,0.240874779183
4861.745,0.240005839708
4863.673,0.236779349816
4865.602,0.237862343969
4867.53,0.237655183892
4869.458,0.236528944599
4871.387,0.239771843455
4873.316,0.239473571838
4875.244,0.242214286571
4877.173,0.245065602914
4879.101,0.24742809579
4881.03,0.24488600608
4882.958,0.241625418458
4884.887,0.238791360361
4886.815,0.240817803387
4888.744,0.242226142519
4890.672,0.246259348679
4892.601,0.25043689916
4894.529,0.247182883168
4896.458,0.242068252455
4898.386,0.242737108805
4900.315,0.245717265626
4902.243,0.241930581705
4904.172,0.241896775349
4906.1,0.248695203604
4908.029,0.248459769028
4909.957,0.245477239197
4911.886,0.244092146529
4913.814,0.245348616296
4915.743,0.246653609056
4917.671,0.25049596477
4919.6,0.248107777624
4921.528,0.25062786494
4923.457,0.253467078751
4925.385,0.25343981969
4927.313,0.253145850833
4929.242,0.249339519917
4931.171,0.242209906698
4933.099,0.240650324866
4935.028,0.242527754883
4936.956,0.24873404851
4938.885,0.250627647458
4940.813,0.251477957445
4942.742,0.247232571524
4944.67,0.247053976423
4946.599,0.249849771706
4948.527,0.251566716172
4950.456,0.249212418832
4952.384,0.246756207631
4954.313,0.246431484453
4956.241,0.248919950942
4958.169,0.251927881262
4960.098,0.252552987885
4962.027,0.248985678503
4963.955,0.247642284452
4965.884,0.250245943257
4967.812,0.255657574987
4969.741,0.257866533357
4971.669,0.25525223373
4973.598,0.251640394699
4975.526,0.253237505832
4977.455,0.250209703406
4979.383,0.249934362144
4981.312,0.254072928796
4983.24,0.258977349222
4985.168,0.253560770628
4987.097,0.251174420879
4989.025,0.254976672573
4990.954,0.258323895991
4992.883,0.260028986719
4994.811,0.261525416896
4996.74,0.25647561271
4998.668,0.256080847051
5000.597,0.251851646892
5002.525,0.252526764127
5004.454,0.253411959099
5006.382,0.249492534006
5008.311,0.253531670019
5010.239,0.258085149475
5012.167,0.260095052327
5014.096,0.258012028068
5016.024,0.251443227636
5017.953,0.253179239842
5019.882,0.254622326432
5021.81,0.258254350073
5023.739,0.259233286026
5025.667,0.256300526572
5027.596,0.252316390012
5029.524,0.254565735278
5031.453,0.258003021372
5033.381,0.259259001285
5035.31,0.259388506871
5037.238,0.261733303711
5039.167,0.262040131842
5041.095,0.265805655836
5043.023,0.261830885716
5044.952,0.256110896268
5046.88,0.259189782242
5048.809,0.266450528305
5050.738,0.26336858061
5052.666,0.261240696734
5054.595,0.263366989114
5056.523,0.26463702401
5058.452,0.264879372935
5060.38,0.268321019974
5062.309,0.266291614694
5064.237,0.266858141785
5066.166,0.264813642352
5068.094,0.264887820442
5070.022,0.261463042799
5071.951,0.261629931417
5073.879,0.262546071974
5075.808,0.267492139396
5077.736,0.267603124005
5079.665,0.264845470763
5081.594,0.260620858895
5083.522,0.26124891929
5085.451,0.264610876165
5087.379,0.268042666414
5089.308,0.267331977868
5091.236,0.267339169897
5093.165,0.264998004218
5095.093,0.267301725074
5097.021,0.264836068903
5098.95,0.265144005619
5100.878,0.261905419036
5102.807,0.261044729413
5104.735,0.264127540297
5106.664,0.265029340057
5108.593,0.26480860473
5110.521,0.263437932916
5112.45,0.263659693561
5114.378,0.269904873624
5116.307,0.272275197002
5118.235,0.267038926753
5120.164,0.259292273903
5122.092,0.267873198262
5124.021,0.271306970997
5125.949,0.271614815713
5127.877,0.271870277443
5129.806,0.269387536066
5131.734,0.263074558426
5133.663,0.263573941186
5135.591,0.266250903886
5137.52,0.265825839454
5139.449,0.267459835246
5141.377,0.269179849418
5143.306,0.269402133281
5145.234,0.273843367991
5147.163,0.271941328554
5149.091,0.269422632529
5151.02,0.270493263814
5152.948,0.271236664707
5154.876,0.267491137036
5156.805,0.268922138143
5158.733,0.275683280941
5160.662,0.27994045117
5162.59,0.277603503397
5164.519,0.272607017295
5166.447,0.277732298824
5168.376,0.279417535356
5170.305,0.2773147296
5172.233,0.27928446602
5174.162,0.280285380614
5176.09,0.278341529162
5178.019,0.277605410034
5179.947,0.272225057951
5181.875,0.268377685324
5183.804,0.265475000463
5185.732,0.266394848103
5187.661,0.274872465182
5189.589,0.280873085109
5191.518,0.28506056945
5193.446,0.280159790115
5195.375,0.275563949755
5197.304,0.267186822671
5199.232,0.267619367892
5201.161,0.269773858545
5203.089,0.27426247626
5205.018,0.267269730892
5206.946,0.258946055636
5208.875,0.26912403721
5210.803,0.276410351885
5212.731,0.278815386181
5214.66,0.281139210445
5216.588,0.276341319899
5218.517,0.27281415323
5220.445,0.274930358274
5222.374,0.27031028793
5224.302,0.258064449251
5226.231,0.258544638806
5228.16,0.271903968658
5230.088,0.272339731341
5232.017,0.268488325594
5233.945,0.271649689925
5235.874,0.27635809076
5237.802,0.281979057386
5239.73,0.280507775967
5241.659,0.276115384284
5243.587,0.266515675228
5245.516,0.265791555827
5247.444,0.269215138162
5249.373,0.26845645733
5251.301,0.272977915934
5253.23,0.275871542382
5255.158,0.264086640276
5257.087,0.274020735399
5259.016,0.282969413562
5260.944,0.282327839675
5262.873,0.278935261321
5264.801,0.276412265192
5266.729,0.278228623164
5268.658,0.281438815059
5270.586,0.289539658898
5272.515,0.290106231518
5274.443,0.288599138982
5276.372,0.292239387384
5278.3,0.287277361763
5280.229,0.282130362668
5282.157,0.282412921724
5284.086,0.285742829333
5286.014,0.284092562167
5287.943,0.288012397833
5289.872,0.279027858829
5291.8,0.285767447525
5293.729,0.288676096742
5295.657,0.285351485531
5297.585,0.285196731561
5299.514,0.281623057849
5301.442,0.282379316605
5303.371,0.2884072213
5305.299,0.289705000186
5307.228,0.285460934398
5309.156,0.285316191092
5311.085,0.290518819876
5313.013,0.291922883659
5314.942,0.290204634533
5316.871,0.285706990703
5318.799,0.28976043324
5320.728,0.286522692913
5322.656,0.285945101848
5324.584,0.289511274779
5326.513,0.286872047372
5328.441,0.287589856778
5330.37,0.289361559851
5332.298,0.282947637557
5334.227,0.289099692786
5336.155,0.277004028442
5338.084,0.264045960021
5340.012,0.274664895762
5341.941,0.28589456554
5343.869,0.27184476939
5345.798,0.269319808023
5347.727,0.279631144836
5349.655,0.293584341854
5351.583,0.295589015775
5353.512,0.280626592818
5355.44,0.285109612703
5357.369,0.305083096787
5359.297,0.304160031898
5361.226,0.294344221916
5363.154,0.290373095524
5365.083,0.293794605248
5367.011,0.292093296879
5368.94,0.295173417433
5370.868,0.29919779389
5372.797,0.298918976604
5374.725,0.286562869069
5376.654,0.278277030536
5378.583,0.286189499776
5380.511,0.296983349027
5382.439,0.297953303389
5384.368,0.29661876175
5386.296,0.298684698816
5388.225,0.306161177346
5390.153,0.306634053456
5392.082,0.301265702843
5394.01,0.288489575715
5395.939,0.291097586931
5397.867,0.300595493508
5399.796,0.304954046743
5401.724,0.302165974964
5403.653,0.305583626741
5405.582,0.306107119109
5407.51,0.301350086044
5409.438,0.286497656238
5411.367,0.282694903687
5413.295,0.28261664804
5415.224,0.30150962034
5417.152,0.318436048309
5419.081,0.31705462896
5421.009,0.308412710483
5422.938,0.299812581355
5424.866,0.298262225666
5426.795,0.297462873868
5428.723,0.287063617595
5430.652,0.296973130505
5432.58,0.298437766218
5434.509,0.290773570806
5436.438,0.300256389313
5438.366,0.302247556147
5440.294,0.289206916184
5442.223,0.298979560964
5444.151,0.305233288329
5446.08,0.301962839208
5448.008,0.299531274475
5449.937,0.303103837477
5451.865,0.312104540858
5453.794,0.318092441324
5455.722,0.31362750788
5457.651,0.308343655261
5459.579,0.304004625995
5461.508,0.307018607244
5463.436,0.318811087467
5465.365,0.320863580037
5467.293,0.314380623909
5469.222,0.30853526948
5471.15,0.315963684223
5473.079,0.317474365737
5475.007,0.305135795886
5476.936,0.311763816922
5478.864,0.319771467128
5480.793,0.319744417423
5482.721,0.318522635687
5484.65,0.316345908002
5486.578,0.31370283666
5488.507,0.315929103032
5490.435,0.31837847743
5492.364,0.314193195421
5494.292,0.317296191581
5496.221,0.324356074623
5498.149,0.321798525916
5500.078,0.326179455037
5502.006,0.331060976556
5503.935,0.321582558369
5505.863,0.318920065094
5507.792,0.318932488323
5509.72,0.313831061228
5511.649,0.317423650976
5513.577,0.319563805578
5515.506,0.318601075493
5517.434,0.321577907213
5519.363,0.329639636191
5521.291,0.333623505509
5523.22,0.340303618937
5525.148,0.333285903273
5527.077,0.319926694549
5529.005,0.323472315655
5530.934,0.336632085665
5532.862,0.335344962189
5534.791,0.328154044959
5536.719,0.319209228986
5538.648,0.32883166409
5540.576,0.339349911204
5542.505,0.337111697631
5544.433,0.325260074655
5546.362,0.324252241288
5548.29,0.332262144919
5550.219,0.343232942156
5552.147,0.341825019745
5554.076,0.332028582527
5556.004,0.332308540446
5557.933,0.340999685171
5559.861,0.33783840646
5561.79,0.335153075682
5563.718,0.334619795864
5565.646,0.336093815331
5567.575,0.335687441034
5569.504,0.338123842432
5571.432,0.33980476984
5573.361,0.344895107114
5575.289,0.342740799168
5577.218,0.346246049044
5579.146,0.34366194632
5581.075,0.338822941755
5583.003,0.337224138225
5584.932,0.349475970735
5586.86,0.348962695539
5588.789,0.342286342298
5590.717,0.345061901908
5592.646,0.344007735857
5594.574,0.338922827116
5596.502,0.341438152761
5598.431,0.340877733027
5600.36,0.343371005093
5602.288,0.344984650055
5604.217,0.349836289161
5606.145,0.347533911642
5608.074,0.338760584231
5610.002,0.344413381283
5611.931,0.359716506828
5613.859,0.359909542226
5615.788,0.347821903879
5617.716,0.351152747814
5619.645,0.359937854512
5621.573,0.352589478417
5623.501,0.352880910791
5625.43,0.362973657126
5627.358,0.368906370576
5629.287,0.360717007786
5631.216,0.356416754998
5633.144,0.354946376309
5635.073,0.351114826819
5637.001,0.352799432145
5638.93,0.353025840823
5640.858,0.349188864185
5642.787,0.350266056857
5644.715,0.346295979552
5646.644,0.358293050833
5648.572,0.367466012612
5650.5,0.365940923953
5652.429,0.36699215954
5654.357,0.372961206452
5656.286,0.36348447123
5658.215,0.357033045832
5660.143,0.361371690688
5662.072,0.366841639212
5664.0,0.374223844629
5665.929,0.375869513732
5667.857,0.375274550016
5669.786,0.379021655306
5671.714,0.376079606679
5673.643,0.375547676478
5675.571,0.374178412907
5677.5,0.366995032939
5679.428,0.361375232826
5681.356,0.366268918425
5683.285,0.362174483535
5685.213,0.360406054558
5687.142,0.365020159171
5689.071,0.370901134428
5690.999,0.378748219065
5692.928,0.38119559134
5694.856,0.374938048313
5696.785,0.37763233642
5698.713,0.383221350831
5700.642,0.383661773489
5702.57,0.373904844106
5704.499,0.377912786451
5706.427,0.387228616227
5708.355,0.387976503123
5710.284,0.380163772164
5712.212,0.386716520688
5714.141,0.391712601352
5716.069,0.389722828609
5717.998,0.385927162198
5719.927,0.385599785992
5721.855,0.3797386982
5723.784,0.381091160953
5725.712,0.385619956017
5727.641,0.396604407092
5729.569,0.392793689743
5731.498,0.385576090739
5733.426,0.387414388904
5735.354,0.397551165012
5737.283,0.400736227267
5739.211,0.404465363595
5741.14,0.40119769784
5743.068,0.398806901372
5744.997,0.400737277759
5746.926,0.405371423338
5748.854,0.405221467944
5750.783,0.402140936129
5752.711,0.395935040846
5754.64,0.392786692942
5756.568,0.392978082185
5758.497,0.399603800205
5760.425,0.400858897854
5762.354,0.399823557287
5764.282,0.396221432491
5766.21,0.406371669673
5768.139,0.407639152504
5770.067,0.403721099644
5771.996,0.403166210629
5773.924,0.40632305074
5775.853,0.400629046114
5777.782,0.405962243149
5779.71,0.416190061169
5781.639,0.409937614325
5783.567,0.397025877083
5785.496,0.409272282682
5787.424,0.415995515551
5789.353,0.418618541665
5791.281,0.423676397168
5793.209,0.421540893605
5795.138,0.417239497345
5797.066,0.420785295117
5798.995,0.413874774116
5800.923,0.410270916657
5802.852,0.417911655349
5804.78,0.432783006684
5806.709,0.433112795922
5808.638,0.434304986545
5810.566,0.432162534749
5812.495,0.432730484205
5814.423,0.434401250915
5816.352,0.433080342287
5818.28,0.422094865402
5820.208,0.421612304496
5822.137,0.430958366845
5824.065,0.420628989249
5825.994,0.409432442475
5827.922,0.413955635957
5829.851,0.430942662277
5831.779,0.452648355066
5833.708,0.444206039863
5835.637,0.439506201935
5837.565,0.440333204397
5839.494,0.437116192678
5841.422,0.443563780054
5843.351,0.449178749476
5845.279,0.443670974766
5847.208,0.445257424594
5849.136,0.454198142651
5851.064,0.468087731654
5852.993,0.467000953155
5854.921,0.462764675777
5856.85,0.456399820166
5858.778,0.443546783797
5860.707,0.439852782125
5862.635,0.453538567403
5864.564,0.455698699737
5866.493,0.455697573193
5868.421,0.46240242406
5870.35,0.474315274068
5872.278,0.474037338882
5874.207,0.473968628253
5876.135,0.472047920867
5878.063,0.468100137073
5879.992,0.462281227778
5881.92,0.469678293155
5883.849,0.477575855939
5885.777,0.486146810359
5887.706,0.468763652797
5889.634,0.465722978788
5891.563,0.470464647553
5893.491,0.483764858142
5895.42,0.486556210209
5897.349,0.494474324373
5899.277,0.479982104021
5901.206,0.471753551069
5903.134,0.47069263789
5905.063,0.478595711198
5906.991,0.48596583858
5908.919,0.491819938285
5910.848,0.489077422017
5912.776,0.49364051538
5914.705,0.487006914377
5916.633,0.480908111474
5918.562,0.484725530012
5920.49,0.497464391243
5922.419,0.493610590111
5924.347,0.491030589832
5926.276,0.489840023181
5928.205,0.493971799575
5930.133,0.499011172595
5932.062,0.519315066552
5933.99,0.519256321003
5935.918,0.504038286657
5937.847,0.495377299244
5939.775,0.505055996596
5941.704,0.508202284968
5943.632,0.509354136219
5945.561,0.506798671221
5947.489,0.509930720552
5949.418,0.51569551923
5951.346,0.524399461112
5953.275,0.524715002681
5955.204,0.526852574016
5957.132,0.522779323917
5959.061,0.515925400373
5960.989,0.513989047768
5962.917,0.532449622528
5964.846,0.551153604482
5966.774,0.549134299443
5968.703,0.543541697225
5970.631,0.541842872943
5972.56,0.535410561773
5974.488,0.545663638534
5976.417,0.554521047668
5978.345,0.545190087704
5980.274,0.536065266267
5982.202,0.541771907697
5984.131,0.549617873022
5986.06,0.5496578801
5987.988,0.550853695127
5989.917,0.559918174481
5991.845,0.549647686346
5993.773,0.550988093578
5995.702,0.546150681415
5997.63,0.557752982751
5999.559,0.559855377388
6001.487,0.579022680446
6003.416,0.58519044102
6005.344,0.579178293048
6007.273,0.56695453081
6009.201,0.565008628546
6011.13,0.570399220873
6013.058,0.571522739102
6014.987,0.557787983534
6016.916,0.569128122505
6018.844,0.583729638228
6020.772,0.590115482843
6022.701,0.593551700617
6024.629,0.590482365775
6026.558,0.585969814278
6028.486,0.589721731094
6030.415,0.584033111567
6032.343,0.580551351893
6034.272,0.58899251697
6036.2,0.602839889319
6038.129,0.607847491368
6040.057,0.608785355923
6041.986,0.589656988389
6043.915,0.590176710573
6045.843,0.597041288302
6047.771,0.61169822903
6049.7,0.621228400619
6051.628,0.610360555635
6053.557,0.602564973584
6055.485,0.627694886556
6057.414,0.636953025195
6059.342,0.64126840519
6061.271,0.621100484646
6063.199,0.610933368822
6065.128,0.626973699449
6067.056,0.632244385677
6068.985,0.626462976208
6070.913,0.630988339644
6072.842,0.642144874886
6074.771,0.65754200297
6076.699,0.66648107504
6078.627,0.663156089855
6080.556,0.641369302044
6082.484,0.641241391962
6084.413,0.645762369594
6086.341,0.657742149778
6088.27,0.660516891577
6090.198,0.665588313192
6092.127,0.68550043051
6094.055,0.680318543052
6095.984,0.670573595155
6097.912,0.685546708856
6099.841,0.678548549644
6101.769,0.663705320665
6103.698,0.65652536523
6105.626,0.673533100772
6107.555,0.683394727142
6109.483,0.681398934593
6111.412,0.675510203219
6113.34,0.689920053832
6115.269,0.699039113975
6117.197,0.702492843129
6119.126,0.702520376586
6121.054,0.7123764932
6122.983,0.714224154986
6124.911,0.704135693753
6126.84,0.699596129601
6128.768,0.713401512041
6130.697,0.711721333078
6132.625,0.719278909606
6134.554,0.71880499169
6136.482,0.734522813679
6138.411,0.750266726832
6140.339,0.752393840709
6142.268,0.752738357892
6144.196,0.754986113713
6146.125,0.743550723869
6148.053,0.73841134434
6149.982,0.739993693653
6151.91,0.753900719584
6153.839,0.754660566808
6155.767,0.763033260594
6157.696,0.762643250394
6159.624,0.764775912159
6161.553,0.759660839894
6163.481,0.754658054818
6165.41,0.751943218414
6167.338,0.767177489734
6169.267,0.782224742627
6171.195,0.759455228519
6173.124,0.762502769694
6175.052,0.789006568286
6176.981,0.787471664628
6178.909,0.793592511255
6180.838,0.787212805306
6182.766,0.77942093742
6184.695,0.787509438244
6186.623,0.798403483881
6188.552,0.815039339209
6190.48,0.81597939941
6192.409,0.799537001479
6194.337,0.799212020618
6196.266,0.807717391784
6198.194,0.826309505568
6200.123,0.814331759218
6202.051,0.820923817112
6203.979,0.825347273224
6205.908,0.820591862169
6207.837,0.829071766055
6209.765,0.840073968033
6211.694,0.825471591242
6213.622,0.836209560799
6215.551,0.859630862421
6217.479,0.86701373252
6219.408,0.863116462932
6221.336,0.850852475691
6223.265,0.844277298088
6225.193,0.845839135409
6227.122,0.853298171751
6229.05,0.872838166907
6230.979,0.880532899813
6232.907,0.89805407434
6234.835,0.901821725557
6236.764,0.897927911042
6238.693,0.905782716844
6240.621,0.895877089199
6242.55,0.892711565221
6244.478,0.912018179282
6246.407,0.917225582788
6248.335,0.924035556929
6250.264,0.930273616506
6252.192,0.92817135858
6254.121,0.919253564473
6256.049,0.923822392832
6257.978,0.925739100833
6259.906,0.917376796647
6261.834,0.919212707568
6263.763,0.926588948656
6265.691,0.932442931118
6267.62,0.946384580498
6269.549,0.940099649692
6271.477,0.940965029733
6273.406,0.961147507902
6275.334,0.977238109358
6277.263,0.965425695829
6279.191,0.965403312993
6281.12,0.984894383245
6283.048,1.00836708079
6284.977,1.01457518929
6286.905,1.00232241711
6288.833,1.00039788656
6290.762,1.02111088047
6292.69,1.02551295374
6294.619,1.02313546775
6296.548,1.02505675468
6298.476,1.02013793661
6300.405,1.00615868828
6302.333,1.02610671261
6304.262,1.06422592497
6306.19,1.07687153505
6308.119,1.04959936039
6310.047,1.02836895621
6311.976,1.02898763047
6313.904,1.06974748699
6315.833,1.06646198338
6317.761,1.06427377053
6319.689,1.0844210524
6321.618,1.08838587126
6323.546,1.0548299157
6325.475,1.06056903043
6327.404,1.06704846579
6329.332,1.06658286397
6331.261,1.07118661778
6333.189,1.0964170641
6335.118,1.10360763455
6337.046,1.11915133703
6338.975,1.11883943744
6340.903,1.10235338787
6342.832,1.09586953527
6344.76,1.13432540909
6346.688,1.14675022529
6348.617,1.1518080365
6350.545,1.15582216629
6352.474,1.16056480966
6354.402,1.16398873815
6356.331,1.18131334258
6358.26,1.17374602435
6360.188,1.16701398641
6362.117,1.15830612149
6364.045,1.18789386536
6365.974,1.19733062697
6367.902,1.19667873644
6369.831,1.20595164487
6371.759,1.22441636314
6373.688,1.21595690749
6375.616,1.21745496588
6377.544,1.21596105426
6379.473,1.21660080357
6381.401,1.21613626858
6383.33,1.24082659323
6385.259,1.24064902089
6387.187,1.25688210883
6389.116,1.26125408193
6391.044,1.26752501306
6392.973,1.27261432803
6394.901,1.27716416322
6396.83,1.26692618072
6398.758,1.27230834091
6400.687,1.2870737825
6402.615,1.29511402764
6404.543,1.29332226332
6406.472,1.27476533089
6408.4,1.27117655613
6410.329,1.31285234178
6412.257,1.33163305249
6414.186,1.33017059038
6416.115,1.33021076653
6418.043,1.32919420349
6419.972,1.33987616221
6421.9,1.36561242919
6423.829,1.37737844953
6425.757,1.37244830415
6427.686,1.37264150815
6429.614,1.38412290513
6431.542,1.40861159423
6433.471,1.41211636872
6435.399,1.39813484109
6437.328,1.385015707
6439.256,1.3897374809
6441.185,1.43939467521
6443.113,1.46333056982
6445.042,1.41486348372
6446.971,1.39193967986
6448.899,1.43548260101
6450.828,1.4496203972
6452.756,1.44937984221
6454.685,1.48256450213
6456.613,1.49631203796
6458.542,1.47258547814
6460.47,1.45687935598
6462.398,1.45414697114
6464.327,1.49289063345
6466.255,1.53504797079
6468.184,1.55109409647
6470.112,1.53498434837
6472.041,1.51285058941
6473.97,1.48388039504
6475.898,1.51145398
6477.827,1.55905104873
6479.755,1.57407404713
6481.684,1.5273896215
6483.612,1.5075716363
6485.541,1.53705735008
6487.469,1.55535771345
6489.397,1.56684702798
6491.326,1.59091691722
6493.254,1.59490330215
6495.183,1.60856609822
6497.111,1.57667440676
6499.04,1.56478611476
6500.968,1.59903111965
6502.897,1.62587314691
6504.826,1.62619598135
6506.754,1.62372081368
6508.683,1.6379520283
6510.611,1.6388701477
6512.54,1.63167426598
6514.468,1.64006773461
6516.396,1.64118496845
6518.325,1.66660192093
6520.253,1.6808760065
6522.182,1.69266396067
6524.11,1.70855506793
6526.039,1.70782291716
6527.967,1.71009802976
6529.896,1.73076730537
6531.824,1.71085199272
6533.753,1.66689731845
6535.682,1.70485974453
6537.61,1.76235615634
6539.539,1.77871973838
6541.467,1.80126729973
6543.396,1.74710109452
6545.324,1.70948608367
6547.252,1.72977449407
6549.181,1.78355804346
6551.109,1.8027970376
6553.038,1.80251915939
6554.966,1.79696084171
6556.895,1.83240135846
6558.823,1.86193212436
6560.752,1.86542328054
6562.68,1.87236061685
6564.609,1.93820012349
6566.538,1.92305701068
6568.466,1.91008343334
6570.395,1.93722868109
6572.323,1.99251409361
6574.251,1.96413396033
6576.18,1.92956525339
6578.108,1.91375753433
6580.037,1.93336045159
6581.965,1.97163605726
6583.894,1.98574171221
6585.822,1.98787690143
6587.751,1.96645073076
6589.679,1.93581965906
6591.608,1.97112431174
6593.537,1.99643361925
6595.465,2.0260544526
6597.394,2.03254823002
6599.322,1.98220379578
6601.25,2.00377777936
6603.179,2.08537302448
6605.107,2.15469619516
6607.036,2.14465762198
6608.964,2.08200050224
6610.893,2.0422630567
6612.821,2.07198433251
6614.75,2.07932372492
6616.678,2.09224943811
6618.607,2.15682930162
6620.535,2.19168396544
6622.464,2.1841421727
6624.393,2.17110713458
6626.321,2.20509348741
6628.25,2.18069990454
6630.178,2.18582321673
6632.106,2.22560929446
6634.035,2.21292162139
6635.963,2.14587015918
6637.892,2.16679650317
6639.82,2.23360013523
6641.749,2.24772745746
6643.677,2.30600153299
6645.606,2.37624932825
6647.534,2.29843693954
6649.463,2.27252171809
6651.391,2.30692376703
6653.32,2.35262036932
6655.249,2.29891143636
6657.177,2.30867515812
6659.105,2.3646645491
6661.034,2.3763324487
6662.962,2.35303839851
6664.891,2.30206280307
6666.819,2.30431406672
6668.748,2.31487103412
6670.676,2.29399162759
6672.605,2.32548196429
6674.533,2.36037380789
6676.462,2.39646505792
6678.39,2.38394892855
6680.319,2.48591129571
6682.248,2.47223404717
6684.176,2.46555013434
6686.104,2.44357241668
6688.033,2.44821364317
6689.961,2.48101014118
6691.89,2.51133362801
6693.818,2.56438458081
6695.747,2.59839741196
6697.675,2.57480148984
6699.604,2.54264595362
6701.532,2.54411341546
6703.461,2.61856316943
6705.389,2.67038193619
6707.318,2.63723611957
6709.246,2.60603564685
6711.175,2.62348828226
6713.104,2.59858610889
6715.032,2.69593038715
6716.96,2.94327941329
6718.889,2.83539126537
6720.817,2.64418607109
6722.746,2.59422249198
6724.674,2.64817161651
6726.603,2.60678405007
6728.531,2.56165156456
6730.46,2.59489287391
6732.388,2.67362591265
6734.317,2.69051482802
6736.245,2.64886341293
6738.174,2.71736485506
6740.102,2.80584010803
6742.031,2.7357880298
6743.959,2.68621751684
6745.888,2.74689185746
6747.816,2.66815668929
6749.745,2.64227234392
6751.673,2.75985775859
6753.602,2.91601923741
6755.53,2.85309172774
6757.459,2.8031320399
6759.387,2.81177308027
6761.316,2.81076955095
6763.244,2.98084137935
6765.173,3.56928651554
6767.101,2.96314227686
6769.03,2.91885098
6770.958,2.96515743331
6772.887,3.02525954271
6774.815,2.96763219834
6776.744,2.9710993169
6778.672,3.07993321345
6780.601,3.04244213289
6782.529,2.87986971736
6784.458,2.89991167128
6786.386,3.01311768774
6788.315,3.09237524508
6790.243,3.08888688239
6792.172,3.04257240749
6794.1,3.15036845808
6796.029,3.17458502404
6797.957,3.23604169859
6799.886,3.21747082244
6801.814,3.16556797485
6803.743,3.21331452042
6805.671,3.16078000181
6807.6,3.08971267193
6809.528,3.09836930927
6811.457,3.21739913795
6813.385,4.59559032447
6815.313,3.31929086702
6817.242,3.1371173439
6819.171,3.04413817621
6821.099,2.95997462406
6823.028,3.02606248722
6824.956,3.0919233557
6826.885,3.20415741054
6828.813,3.33789770559
6830.742,3.41980467018
6832.67,3.31585529323
6834.599,3.36752720561
6836.527,3.3023870706
6838.456,3.32907546247
6840.384,3.37581599232
6842.313,3.48736168764
6844.241,3.54692191672
6846.17,3.73624912846
6848.098,3.56489891333
6850.027,3.47176449543
6851.955,3.48554167128
6853.884,3.40140936716
6855.812,3.30703703464
6857.741,3.44668431047
6859.669,3.50093503004
6861.598,3.42167262972
6863.526,3.42433016383
6865.455,3.58184319676
6867.383,3.58945818926
6869.312,3.55995483285
6871.24,3.61400472216
6873.168,3.74838354285
6875.097,3.72526706348
6877.026,3.64099909334
6878.954,3.93151157915
6880.883,5.0771009888
6882.811,3.69753232228
6884.74,3.74060025568
6886.668,3.99323383363
6888.597,5.53508897351
6890.525,4.26021445238
6892.454,3.63926511008
6894.382,3.65662184805
6896.311,3.73864220539
6898.239,3.63422294742
6900.167,3.65781760195
6902.096,3.73602246087
6904.024,3.79169235275
6905.953,3.61296171619
6907.882,3.56866923577
6909.81,3.61155466103
6911.739,3.78078893135
6913.667,3.69800026451
6915.596,3.6444685236
6917.524,3.65047496395
6919.453,3.65433401484
6921.381,3.9623086812
6923.31,6.53095502906
6925.238,3.93114172434
6927.167,3.87049322706
6929.095,3.77845454403
6931.023,3.70999043982
6932.952,3.73042964217
6934.881,3.87267529237
6936.809,3.92791148847
6938.738,4.03595489232
6940.666,3.96932923199
6942.595,4.06045435275
6944.523,5.32699983687
6946.452,5.22820899825
6948.38,5.2425436408
6950.309,5.33526922367
6952.237,4.26875012055
6954.166,4.22036028812
6956.094,5.32412318268
6958.022,5.52275044424
6959.951,5.81389814318
6961.879,5.46853821769
6963.808,6.6863782993
6965.737,5.60331362447
6967.665,5.48918395909
6969.594,4.28022101004
6971.522,4.37561351082
6973.451,5.58816792858
6975.379,5.60128923619
6977.308,4.19125233199
6979.236,4.04066338133
6981.165,4.14577484641
6983.093,5.50938542007
6985.021,4.49504502748
6986.95,5.84158164613
6988.878,6.11720758188
6990.807,5.79145424705
6992.735,4.33191034071
6994.664,4.50377182472
6996.593,4.43361605718
6998.521,4.08686046645
7000.45,4.01249364093
7002.378,4.12850590942
7004.307,4.31670435364
7006.235,4.78179588879
7008.164,5.63070022633
7010.092,4.3539408793
7012.021,4.24577820299
7013.949,4.48488783003
7015.877,5.02795679143
7017.806,6.19814217441
7019.734,4.72296972468
7021.663,5.66309689557
7023.592,5.68001143702
7025.52,4.82133630378
7027.449,4.71140079882
7029.377,4.60890494888
7031.306,4.43455846356
7033.234,4.54596230611
7035.163,4.71865137235
7037.091,4.64190745913
7039.02,4.54972918277
7040.948,5.84170744654
7042.876,6.01640385718
7044.805,5.87666855631
7046.733,5.91375340296
7048.662,4.84228974528
7050.59,4.73705224474
7052.519,5.99405250484
7054.448,6.12341916742
7056.376,4.99663548629
7058.305,4.88183304501
7060.233,5.07786929092
7062.162,5.13899655861
7064.09,4.85511465922
7066.019,5.07097653102
7067.947,6.31148389547
7069.875,6.29436953811
7071.804,5.20596606552
7073.732,4.66257621119
7075.661,4.65702365266
7077.589,4.812137352
7079.518,6.14127780374
7081.446,7.43684045716
7083.375,6.37917060754
7085.304,4.95291560201
7087.232,5.38964227831
7089.161,6.20624050846
7091.089,7.59140123639
7093.018,8.32547752595
7094.946,7.73999801159
7096.875,5.4604614953
7098.803,5.05385808314
7100.731,5.05860609964
7102.66,6.52030952325
7104.588,6.91233515029
7106.517,5.11166051824
7108.445,5.10665427618
7110.374,5.32194040304
7112.302,6.55572637942
7114.231,5.42106687348
7116.16,6.29140548262
7118.088,7.65562590363
7120.017,6.41785418323
7121.945,5.48494300433
7123.874,5.14553986242
7125.802,6.39746932058
7127.73,7.8819807708
7129.659,7.96374622899
7131.587,7.86214172285
7133.516,6.69542853713
7135.444,6.50692395644
7137.373,5.16427971153
7139.301,5.0425375274
7141.23,4.97509289599
7143.159,4.98774899283
7145.087,6.46279464861
7147.016,7.96465196368
7148.944,6.54250674884
7150.873,5.81319271765
7152.801,6.48151385699
7154.729,5.10812782701
7156.658,5.1661917997
7158.586,6.44659623818
7160.515,6.39920899498
7162.443,5.44347294701
7164.372,6.65705576596
7166.3,6.56766358839
7168.229,6.58714353567
7170.157,6.63438915097
7172.086,6.73469822314
7174.015,8.39584815347
7175.943,7.10642992845
7177.872,5.2996544959
7179.8,5.49542466486
7181.729,6.63145354268
7183.657,6.58636299758
7185.585,5.6143973368
7187.514,5.46023051015
7189.442,6.67769659028
7191.371,8.0784047563
7193.299,7.37474895427
7195.228,8.242349093
7197.156,8.20952754176
7199.085,7.02757520137
7201.013,5.58636069997
7202.942,5.43170824819
7204.871,6.74271917984
7206.799,6.84262406104
7208.728,5.65798667514
7210.656,5.803294889
7212.584,7.17435398287
7214.513,6.82450014203
7216.441,5.79161741059
7218.37,7.02763506021
7220.298,6.2630083635
7222.227,7.54451457506
7224.155,6.3072931284
7226.084,6.1122604351
7228.012,5.91187651264
7229.941,5.69465358119
7231.87,5.9464758475
7233.798,6.77921100601
7235.727,7.57279070255
7237.655,7.29787578281
7239.583,5.97474167966
7241.512,5.81280843223
7243.44,8.45471843353
7245.369,7.62269455165
7247.297,6.21043555528
7249.226,6.08845109823
7251.154,7.13590007489
7253.083,6.27451197387
7255.011,7.42404853113
7256.94,6.32355672619
7258.868,6.65175133706
7260.797,6.08800325647
7262.726,7.50916438258
7264.654,7.64736956627
7266.583,7.27725863461
7268.511,7.34619141928
7270.439,6.41905557666
7272.368,6.00542562814
7274.296,6.01515718232
7276.225,7.33874291787
7278.153,10.0362725156
7280.082,10.0459956084
7282.01,7.48676841598
7283.939,6.2509689001
7285.867,7.71033843951
7287.796,8.68134513095
7289.724,7.64539796108
7291.653,7.67705523977
7293.582,6.08618774603
7295.51,6.65343834365
7297.438,7.44997329429
7299.367,6.25058702648
7301.295,7.55790112096
7303.224,7.75879235072
7305.152,8.8335528372
7307.081,7.66604981529
7309.009,7.45356170615
7310.938,7.63589718771
7312.866,7.76262409833
7314.795,9.01174644111
7316.723,6.96367956798
7318.652,7.62120872479
7320.581,8.83170742122
7322.509,7.957219103
7324.438,7.59234134856
7326.366,7.60345405733
7328.294,7.64480152527
7330.223,7.59260790515
7332.151,7.84446131621
7334.08,9.11302721409
7336.008,7.89827192411
7337.937,7.48134217175
7339.865,6.24248427482
7341.794,6.39842619429
7343.722,6.54544310638
7345.651,6.53138059428
7347.579,6.78002917896
7349.508,7.46976425653
7351.437,7.93961782209
7353.365,6.59548328638
7355.293,6.37445226839
7357.222,6.43917475473
7359.15,7.77906851794
7361.079,7.93653429482
7363.007,6.96153752869
7364.936,7.08853656764
7366.864,9.20726729181
7368.793,7.95217549604
7370.721,8.01001997766
7372.65,8.07614404909
7374.578,9.26064329688
7376.507,7.90462006417
7378.435,6.70907958528
7380.364,9.13683203995
7382.292,9.2203565171
7384.221,8.38897699553
7386.149,8.21110537035
7388.078,9.34295937499
7390.006,9.34178261336
7391.935,8.48921962567
7393.863,9.37736009786
7395.792,9.28060943414
7397.72,7.89632288773
7399.649,8.0186810107
7401.577,9.39381531919
7403.506,8.76360560869
7405.434,8.56357758904
7407.363,9.55269789774
7409.291,6.86144519025
7411.22,6.83981042043
7413.148,8.40715713074
7415.077,8.20049189211
7417.005,7.0417031564
7418.934,6.87505177452
7420.862,8.18657220209
7422.791,8.12147521135
7424.719,8.11602767296
7426.648,8.28997254896
7428.576,9.5905997441
7430.505,7.09507071332
7432.433,8.39622167222
7434.362,8.66114146387
7436.29,10.3369693809
7438.219,8.30727544315
7440.147,7.07007256659
7442.076,8.4981703845
7444.004,9.78436096334
7445.933,10.1338964944
7447.861,8.43779389835
7449.79,7.12912388726
7451.718,7.20950355124
7453.646,8.14941946689
7455.575,7.1389222654
7457.504,8.38533387617
7459.432,9.88544102637
7461.361,11.1543518094
7463.289,11.2119172353
7465.218,7.65962166049
7467.146,7.14816584562
7469.075,7.59339842502
7471.003,8.8838487419
7472.932,11.2592052632
7474.86,8.14540096396
7476.789,8.64198458062
7478.717,9.84081794686
7480.646,9.92891577565
7482.574,8.43671945289
7484.503,8.27490375245
7486.431,7.06915328858
7488.36,7.0951576012
7490.288,8.44421402307
7492.217,7.23712076601
7494.145,7.37352082243
7496.074,8.85067096179
7498.002,8.64866571861
7499.931,8.57748689337
7501.859,8.72601687491
7503.788,10.0129734903
7505.716,7.79232112541
7507.645,8.84354207127
7509.573,7.32781977345
7511.501,8.84721284263
7513.43,10.3141707012
7515.359,9.95138258595
7517.287,9.96868896731
7519.216,8.74811026288
7521.144,7.86665187762
7523.073,10.2068071889
7525.001,10.1237666825
7526.93,11.4418148568
7528.858,11.4634552822
7530.787,10.3375387149
7532.715,10.5556995337
7534.644,10.1915532932
7536.572,8.98716625129
7538.5,10.222372689
7540.429,9.03893382681
7542.357,8.7199733418
7544.286,8.85827548426
7546.215,10.167529415
7548.143,9.33599855637
7550.072,10.2098091173
7552.0,8.96753353995
7553.929,9.44369917327
7555.857,9.30582693215
7557.786,10.6787390475
7559.714,9.19045656474
7561.643,10.2143885865
7563.571,10.6121614348
7565.5,8.92161512913
7567.428,7.86134347593
7569.356,10.3721114657
7571.285,10.4769994641
7573.214,9.15453484153
7575.142,9.27715527731
7577.071,8.91954644912
7578.999,8.93363397798
7580.928,10.2244049468
7582.856,9.0438065818
7584.785,10.2658252199
7586.713,9.20199192743
7588.642,10.2851179163
7590.57,10.3562156767
7592.499,9.46131951842
7594.427,8.44384681369
7596.355,9.11738298748
7598.284,9.37634018638
7600.212,9.04518048152
7602.141,9.27082942127
7604.07,9.59914041158
7605.998,10.5387229899
7607.927,10.3867190991
7609.855,10.5348611045
7611.784,10.5460363762
7613.712,10.4867335549
7615.641,9.15953422299
7617.569,10.3215528149
7619.498,9.05571402315
7621.426,9.53407978704
7623.354,8.23557438928
7625.283,9.10122613858
7627.211,10.8208498407
7629.14,9.59797757782
7631.068,7.69321053419
7632.997,7.53458724087
7634.926,7.56930785517
7636.854,7.70322341377
7638.783,9.31840164223
7640.711,10.854146462
7642.64,9.8064003526
7644.568,10.6160324489
7646.497,9.03294019306
7648.425,8.03571601928
7650.354,10.7357392933
7652.282,11.2472584717
7654.21,9.29719021521
7656.139,9.36116833998
7658.067,9.56657838602
7659.996,10.8304031054
7661.925,12.03049897
7663.853,12.1326292264
7665.782,10.8739226257
7667.71,9.50549593826
7669.639,9.2134566317
7671.567,9.63162625602
7673.496,12.2038758064
7675.424,10.9665658309
7677.353,10.6707501398
7679.281,9.54006366841
7681.209,9.59741417963
7683.138,9.80890640299
7685.066,9.69826609722
7686.995,10.6446921139
7688.923,12.157993487
7690.852,9.2918952012
7692.781,9.01322631032
7694.709,10.460347023
7696.638,9.51098859618
7698.566,10.728805944
7700.495,10.6933586441
7702.423,9.58260504942
7704.352,8.56446072725
7706.28,9.52174049847
7708.208,9.43839886516
7710.137,10.7900788249
7712.065,9.51464819838
7713.994,9.95456046589
7715.922,9.80438457235
7717.851,10.7203329139
7719.779,8.5733891641
7721.708,9.4651896318
7723.637,10.8194979287
7725.565,9.5910816333
7727.494,9.55339159969
7729.422,12.4026414196
7731.351,11.0089009366
7733.279,9.8805173504
7735.208,9.507347977
7737.136,10.9149572142
7739.064,12.3806874679
7740.993,11.1343262589
7742.921,11.0284611549
7744.85,9.78255241535
7746.778,11.1232845249
7748.707,9.98974065483
7750.635,10.8421880346
7752.564,10.9737367612
7754.493,12.348627625
7756.421,10.115145982
7758.35,11.1084050803
7760.278,11.2661984132
7762.207,11.2059548897
7764.135,9.80325070655
7766.063,9.3091684607
7767.992,9.59412850881
7769.92,10.9607990366
7771.849,11.0195138063
7773.777,8.54547593481
7775.706,8.33456606485
7777.634,9.84406386411
7779.563,9.49010531276
7781.492,11.0399430404
7783.42,11.0593309613
7785.349,10.9467443317
7787.277,10.9678218878
7789.206,9.50592858754
7791.134,9.31254671597
7793.063,9.40826626731
7794.991,10.9324843877
7796.919,12.4763950109
7798.848,10.2254490145
7800.776,9.49742250581
7802.705,12.4331165126
7804.633,11.0297560846
7806.562,11.0472488688
7808.49,9.80288722248
7810.419,9.54072285115
7812.348,9.42422801278
7814.276,9.55772904513
7816.205,10.8935419653
7818.133,10.8717339363
7820.062,10.8385359093
7821.99,8.1805935084
7823.918,10.8517129041
7825.847,9.92973672176
7827.775,8.1761847369
7829.704,10.9191216278
7831.632,11.0690445457
7833.561,9.90094235538
7835.489,10.8343706601
7837.418,10.8569301068
7839.346,9.57426198198
7841.275,9.65048056774
7843.204,11.061167738
7845.132,12.4052068919
7847.061,10.978995913
7848.989,10.9531737201
7850.917,10.8771894125
7852.846,8.32085328755
7854.774,9.69038807314
7856.703,9.98882718288
7858.631,10.0381737477
7860.56,8.85653718156
7862.488,10.9554562748
7864.417,11.2089450719
7866.345,12.4903805754
7868.274,12.3756257421
7870.203,9.83763218498
7872.131,8.75700757864
7874.06,9.51222094342
7875.988,10.8076697787
7877.917,9.62757874007
7879.845,9.84096430247
7881.773,11.0869761618
7883.702,11.1187442333
7885.63,10.091878457
7887.559,11.0246545377
7889.487,8.23245751566
7891.416,8.23065903914
7893.344,8.98925239057
7895.273,11.2888411989
7897.201,9.79068690363
7899.13,7.96580507368
7901.059,7.91983798499
7902.987,9.49537922841
7904.916,11.0433395203
7906.844,9.84494005416
7908.772,10.5024601344
7910.701,8.65552701178
7912.629,8.40034728773
7914.558,9.81257204557
7916.486,11.0210337695
7918.415,9.51612125216
7920.343,10.8006811304
7922.272,10.9733550902
7924.2,10.9530974434
7926.129,11.2080079029
7928.057,11.6561779643
7929.986,11.0998296948
7931.915,9.71529622628
7933.843,9.42999683016
7935.771,9.51866115368
7937.7,8.62409406734
7939.628,9.85765736216
7941.557,10.1334926699
7943.485,12.5958153004
7945.414,11.340380847
7947.342,11.073643046
7949.271,9.55099657486
7951.199,7.94699217972
7953.128,9.34750621219
7955.056,10.9593516254
7956.985,9.63815361563
7958.914,9.53785891481
7960.842,9.43062906749
7962.771,9.51754332328
7964.699,9.63894990086
7966.627,8.05563926997
7968.556,8.12301079648
7970.484,8.25074165646
7972.413,9.78779044948
7974.341,8.30894041577
7976.27,9.73919368949
7978.198,12.5285958012
7980.127,11.4042668702
7982.055,11.1115878026
7983.984,8.29214258461
7985.912,9.34247337939
7987.841,8.01327809706
7989.77,8.32222578951
7991.698,9.63721084671
7993.626,8.34394375143
7995.555,9.47602168431
7997.483,11.2514076048
7999.412,12.5145006362
8001.34,12.5148477716
8003.269,9.95167431943
8005.197,9.37633027104
8007.126,8.0274756326
8009.054,7.87215479686
8010.983,8.44176523952
8012.911,9.83244137905
8014.84,10.988463548
8016.768,10.9447974454
8018.697,9.60549942662
8020.625,8.65110052636
8022.554,9.62980872556
8024.482,9.361199784
8026.411,9.54509828169
8028.339,9.43558254735
8030.268,9.49282604686
8032.196,9.75812788594
8034.125,10.99970246
8036.053,10.9879794441
8037.982,8.78518288026
8039.91,8.47971739213
8041.839,8.46319214318
8043.767,9.45998095074
8045.696,9.53037546836
8047.624,9.5834161444
8049.553,10.2363605321
8051.481,9.50400913257
8053.41,9.67571767354
8055.338,11.2537662017
8057.267,9.78762635616
8059.195,9.40841731603
8061.124,9.77460663968
8063.052,9.62079460197
8064.981,11.0070920737
8066.909,12.4199295726
8068.838,11.0801780404
8070.766,11.2996385711
8072.695,9.71344016268
8074.623,9.40683278815
8076.552,8.37384591781
8078.48,8.62420014526
8080.409,10.1478084554
8082.337,11.196755965
8084.266,10.2175453175
8086.194,9.4683830936
8088.123,9.64392435952
8090.051,9.71946439764
8091.979,8.19309593136
8093.908,7.77027002807
8095.837,9.66981216765
8097.765,10.9726445621
8099.694,9.85251258995
8101.622,9.46268851818
8103.551,10.771246859
8105.479,11.1950203042
8107.408,11.1853168071
8109.336,11.2610748404
8111.265,10.9968385176
8113.193,9.22772200807
8115.122,10.8527872414
8117.05,12.3857940351
8118.979,11.1028018872
8120.907,9.75123081592
8122.836,9.67269565446
8124.764,8.00579814248
8126.693,9.41908849705
8128.621,10.8319372827
8130.55,9.29751871005
8132.478,7.90318787724
8134.407,8.98081503801
8136.335,11.2580615153
8138.264,11.215963547
8140.192,8.24140528409
8142.121,9.38220281032
8144.049,8.0132826813
8145.978,9.40028758404
8147.906,9.3483235064
8149.834,8.03105680922
8151.763,9.68720768711
8153.692,11.2765525538
8155.62,12.573037393
8157.549,12.2936906243
8159.477,9.46834630151
8161.406,7.69924824996
8163.334,9.48512518231
8165.263,10.8516010015
8167.191,7.87854990196
8169.12,7.64411438621
8171.048,9.57549857822
8172.977,9.768543036
8174.905,11.0585175644
8176.833,12.427164604
8178.762,9.36296554997
8180.69,9.489377143
8182.619,10.8523777563
8184.548,10.7841343002
8186.476,10.8093813271
8188.405,9.7990393473
8190.333,7.99517897655
8192.262,8.01096478722
8194.19,9.10439727316
8196.118,10.6777388296
8198.047,9.17043208715
8199.976,9.32051596228
8201.904,10.4564703056
8203.833,10.5953596343
8205.761,9.25396904534
8207.689,11.1390778238
8209.618,12.4731786043
8211.547,10.900864238
8213.476,9.68227754329
8215.403,10.213091285
8217.332,10.9999834024
8219.261,9.34184899503
8221.189,10.7968464912
8223.117,10.7691757368
8225.046,10.8100890618
8226.975,10.8700858088
8228.903,8.97618319768
8230.832,7.54250427961
8232.76,9.42927783261
8234.688,9.47596412732
8236.617,9.27187905676
8238.546,10.1133291818
8240.474,10.3246632901
8242.402,9.7928105382
8244.331,7.67757934565
8246.26,9.10376034272
8248.188,11.9137253783
8250.116,11.0332367994
8252.045,9.66499930979
8253.974,9.80692538705
8255.902,10.2873729364
8257.831,10.3305646178
8259.759,9.53179100247
8261.688,9.75115762081
8263.616,10.0521125424
8265.545,10.2628533386
8267.473,11.6530045891
8269.401,12.0610695207
8271.33,12.4098339835
8273.259,11.211484481
8275.188,10.7093711963
8277.115,9.64913171789
8279.044,11.1303092736
8280.973,11.0065023376
8282.901,8.23799424549
8284.829,12.1473317636
8286.758,11.3007568224
8288.687,10.7372503165
8290.615,9.5026197247
8292.544,10.8088283717
8294.472,9.43849114716
8296.4,8.59426560087
8298.329,7.56591801023
8300.258,9.53259980486
8302.187,9.45064627944
8304.114,8.07489192966
8306.043,10.8658232102
8307.972,11.1563651004
8309.9,12.049157754
8311.828,10.5611264785
8313.757,9.22759778987
8315.686,7.59332122538
8317.614,8.71453126482
8319.543,7.26851891684
8321.471,7.63394108861
8323.399,12.4775390318
8325.328,11.7514095009
8327.257,9.46669490587
8329.185,10.3543664075
8331.113,11.8117759254
8333.042,8.72088422958
8334.971,7.79023208039
8336.899,9.0150635883
8338.827,9.29213500895
8340.756,10.1581058783
8342.685,10.2809441554
8344.613,10.8236646032
8346.542,11.2281439601
8348.47,9.09963548825
8350.398,9.25608472404
8352.327,9.94986048858
8354.256,9.18811510599
8356.184,10.711707339
8358.112,10.9907215097
8360.041,11.7168953437
8361.97,11.2812978724
8363.898,10.4306896812
8365.826,9.20290932106
8367.755,8.89574751505
8369.684,11.2030147851
8371.612,14.1169586382
8373.54,10.1459247688
8375.469,8.70220944782
8377.397,10.6575870971
8379.326,12.3511871019
8381.255,9.67870556423
8383.183,8.58899384569
8385.111,8.83670223018
8387.04,10.1113469331
8388.969,11.0874526976
8390.897,9.52823862811
8392.825,11.8999136095
8394.754,12.7305849944
8396.683,11.0183101767
8398.611,10.3571109612
8400.539,10.3923217232
8402.468,10.5277739014
8404.396,10.065488828
8406.325,12.9930976174
8408.254,13.4167440427
8410.182,14.6850884324
8412.11,15.5673375465
8414.039,12.5356088806
8415.968,10.6055113648
8417.896,11.3402246117
8419.824,14.7738057356
8421.753,14.347917734
8423.682,9.15419812893
8425.61,8.06358468796
8427.538,12.9010705291
8429.467,12.9876637706
8431.396,9.7892692495
8433.324,11.5848711521
8435.253,13.3313083243
8437.181,12.7917619416
8439.109,10.883996512
8441.038,11.7904852745
8442.967,11.6508301555
8444.895,8.86486030236
8446.823,9.2814055963
8448.752,8.20268770862
8450.681,6.86861702102
8452.609,7.66981282395
8454.537,9.91123293879
8456.466,12.3980080606
8458.395,10.7839922891
8460.323,11.4786598642
8462.251,15.3753522644
8464.18,14.6839930179
8466.108,12.1964644731
8468.037,12.5139155264
8469.966,10.929935093
8471.894,8.43156819961
8473.822,10.0462827388
8475.751,11.0082276209
8477.68,9.84503856798
8479.608,9.57961868272
8481.536,11.3423245766
8483.465,11.9485440397
8485.394,11.43760832
8487.322,10.7258096015
8489.25,15.4076292241
8491.179,13.8894972986
8493.107,12.3818918758
8495.036,10.1020666515
8496.965,9.5119283205
8498.893,11.7127975919
8500.821,9.57489596283
