baseline wavenumber (cm-1),baseline absorbance (cm-1),baseline-subtracted absorbance (cm-1)
3199.379,0.156629434954,1.24344978758e-14
3201.308,0.154794084287,0.00268494128709
3203.236,0.152969530783,0.00420119599363
3205.165,0.151153881753,0.00639539551414
3207.093,0.149349019673,0.00499698255106
3209.021,0.147554000752,0.00337039023147
3210.95,0.145767901624,0.00399708371961
3212.878,0.143992574127,0.00778494533153
3214.807,0.142226176635,0.0103650494841
3216.736,0.140469632517,0.00894257813734
3218.664,0.138723844708,0.008091074932
3220.593,0.136987002227,0.0102656006239
3222.521,0.135260905842,0.0119330696964
3224.449,0.133544652616,0.0117793138245
3226.378,0.131837360037,0.00844010888078
3228.306,0.130140798235,0.00684191681613
3230.235,0.128453207292,0.00846481555209
3232.164,0.126775469722,0.0104574222214
3234.092,0.125108447609,0.0102478649352
3236.021,0.123450411676,0.0104169693002
3237.949,0.121803080987,0.0127238572525
3239.877,0.120165593456,0.015692589097
3241.806,0.118537107425,0.0126035981241
3243.734,0.116919311319,0.0107618774005
3245.663,0.115310526925,0.0120188979209
3247.592,0.113711595904,0.0157653069569
3249.52,0.112123339485,0.015508824671
3251.448,0.110544926227,0.0145344228081
3253.377,0.108975545107,0.0155812121961
3255.305,0.107416823272,0.0152866033934
3257.234,0.10586714379,0.0154009245416
3259.162,0.104328113378,0.0171785074648
3261.091,0.102798135533,0.0167232432196
3263.02,0.101278011061,0.0173745715736
3264.948,0.0997685203376,0.0188001645911
3266.876,0.0982688727738,0.019920250849
3268.805,0.096778298203,0.0216690888383
3270.733,0.095298342063,0.0210071264501
3272.662,0.0938274691295,0.0172788686851
3274.591,0.0923664495685,0.0163124142746
3276.519,0.0909160331169,0.0168207504675
3278.448,0.0894747151931,0.0192870355397
3280.376,0.0880439901653,0.0216638840892
3282.304,0.0866231082966,0.0223443434369
3284.233,0.0852113402746,0.021858304929
3286.161,0.0838101498298,0.0193724034908
3288.09,0.082418083445,0.0174752754957
3290.019,0.0810358704328,0.0206981839491
3291.947,0.0796642196763,0.0203706534663
3293.875,0.078302412079,0.0218097884668
3295.804,0.0769497489686,0.0243375248614
3297.732,0.0756076327951,0.0251499735933
3299.661,0.0742746713218,0.0259750001631
3301.589,0.0729522465721,0.0241734989045
3303.518,0.0716389867361,0.0203265444476
3305.447,0.0703355802726,0.0211199943761
3307.375,0.0690426952113,0.0248838184853
3309.303,0.0677596533092,0.0268329879523
3311.232,0.0664857967475,0.0257976359827
3313.16,0.0652224462691,0.023645945523
3315.089,0.0639682913446,0.0219283022064
3317.017,0.0627246322901,0.0236642285206
3318.946,0.0614901790028,0.0243882198651
3320.875,0.060265579088,0.0237807162723
3322.803,0.0590514597219,0.0221458515083
3324.731,0.0578471835149,0.0242098264922
3326.66,0.056652133502,0.0270555385894
3328.588,0.0554675487188,0.0274097382518
3330.517,0.054292200343,0.0263683677354
3332.445,0.0531273069837,0.0280285608016
3334.374,0.0519716602451,0.026197752471
3336.302,0.0508264583095,0.0249387291968
3338.231,0.0496905132081,0.0278906047541
3340.159,0.0485650026963,0.0279936751567
3342.088,0.0474487592321,0.0245607424358
3344.016,0.0463429401441,0.0267936210608
3345.945,0.045246398317,0.0297065987516
3347.873,0.0441602706528,0.0308260833348
3349.802,0.043083430463,0.0291327830213
3351.73,0.0420169942226,0.0291828440469
3353.659,0.0409598556699,0.03047651348
3355.587,0.0399131108533,0.0317643378478
3357.516,0.0388756739378,0.030399571185
3359.444,0.0378486205449,0.0296910539724
3361.373,0.0368308852667,0.0303423685492
3363.302,0.035823003361,0.0308281641312
3365.23,0.0348254896565,0.0331493410319
3367.158,0.0338378191112,0.0321032503318
3369.087,0.0328594871073,0.0308598093649
3371.015,0.0318915079858,0.0344468120384
3372.944,0.0309328776191,0.0328713273743
3374.872,0.0299845899214,0.0304293391193
3376.801,0.0290456611919,0.0301790431445
3378.729,0.028117064918,0.032303434425
3380.658,0.0271978378256,0.0331539260478
3382.586,0.0262889329755,0.0367248141184
3384.515,0.0253894075203,0.0370663692916
3386.443,0.024500194094,0.0340255311663
3388.372,0.023620370276,0.0317778911209
3390.3,0.0227508482735,0.0341621204923
3392.229,0.0218907260927,0.0342171279455
3394.157,0.021040895514,0.0361889639826
3396.086,0.0202004749703,0.03626419702
3398.014,0.0193703358154,0.0369543381965
3399.943,0.018549616909,0.0366565894996
3401.871,0.0177391691778,0.0370349135069
3403.8,0.0169381519086,0.0390221230333
3405.728,0.0161473956012,0.0377735586088
3407.657,0.0153660799691,0.0374955393577
3409.585,0.0145950150856,0.0403968983886
3411.514,0.0138334010907,0.0399566524826
3413.442,0.0130820276309,0.0397341049881
3415.371,0.0123401152732,0.0408672030327
3417.299,0.0116084332372,0.0406421479818
3419.228,0.0108862225167,0.037708743621
3421.156,0.0101742319045,0.0365411223864
3423.085,0.00947172282116,0.0332640499475
3425.013,0.00877942363276,0.033025893258
3426.942,0.00809661618661,0.0343500632837
3428.87,0.00742400842199,0.0351641852503
3430.799,0.00676090261302,0.0378534711866
3432.727,0.00610798627221,0.0410632459122
3434.656,0.00546458210042,0.0400155553705
3436.584,0.0048313571834,0.037224642008
3438.513,0.00420765464879,0.0356821664368
3440.441,0.00359412115556,0.0369451490355
3442.37,0.00299012025814,0.0352338765072
3444.298,0.00239627818869,0.0335650075689
3446.227,0.00181197892847,0.033636317847
3448.155,0.00123782828281,0.0378347482865
3450.084,0.000673230659764,0.0396426492553
3452.012,0.000118771437894,0.038036489858
3453.941,-0.000426124547964,0.0353755837615
3455.869,-0.000960892346043,0.0382756603638
3457.798,-0.00148608669472,0.0421820333236
3459.726,-0.002001163069,0.0402211165715
3461.655,-0.00250665578049,0.036358874521
3463.583,-0.00300204073099,0.0384195076268
3465.512,-0.00348783180529,0.0406075123875
3467.44,-0.003963525332,0.0410928086636
3469.369,-0.00442961476912,0.0421916687467
3471.297,-0.00488561687203,0.044934136027
3473.226,-0.00533200467197,0.0440912283655
3475.154,-0.00576831535109,0.042918825813
3477.083,-0.00619500151384,0.0477526685511
3479.011,-0.00661162076917,0.0492180091246
3480.94,-0.00701860529474,0.0460552979057
3482.868,-0.00741553312629,0.0455177265964
3484.797,-0.00780281601467,0.0480231738434
3486.725,-0.00818005242242,0.0475179681204
3488.654,-0.00854763367361,0.0459311371609
3490.582,-0.00890517865758,0.0494495029273
3492.511,-0.00925305827159,0.0528424649228
3494.439,-0.00959091183176,0.0524176580159
3496.368,-0.00991908980859,0.0505594415725
3498.296,-0.010237251945,0.0536042791359
3500.225,-0.0105457282846,0.0531425138906
3502.153,-0.0108441989972,0.0498060912442
3504.082,-0.0111329736997,0.0516126057627
3506.01,-0.0114117529885,0.0583929518159
3507.939,-0.0116808260537,0.0610798961033
3509.867,-0.0119399139187,0.0624756462547
3511.796,-0.0121892853468,0.0633092691738
3513.724,-0.012428681788,0.0626273070787
3515.653,-0.012658351579,0.0601495069413
3517.581,-0.0128780565964,0.061261256839
3519.51,-0.0130880247501,0.0654775931318
3521.438,-0.0132880383437,0.067223143974
3523.367,-0.0134783048603,0.0697307055476
3525.295,-0.0136586270301,0.0707555642585
3527.224,-0.0138291919095,0.0663557258223
3529.152,-0.0139898226555,0.0667958471173
3531.081,-0.0141406858977,0.0669153750718
3533.009,-0.01428162522,0.0666014473164
3534.938,-0.0144127868249,0.0643915596946
3536.866,-0.0145340347234,0.0643596690103
3538.795,-0.0146454946912,0.0646055674699
3540.723,-0.0147470511659,0.0657649426043
3542.652,-0.0148388094965,0.0637552150358
3544.58,-0.0149206745474,0.0556888945009
3546.509,-0.0149927312408,0.0510101172713
3548.437,-0.0150549048679,0.0534689349902
3550.366,-0.0151072599242,0.0529284466218
3552.294,-0.0151497421275,0.0548768218808
3554.223,-0.0151823955465,0.0634549114669
3556.151,-0.0152051863261,0.0704902363614
3558.08,-0.0152181381079,0.0746182189732
3560.008,-0.0152212374637,0.0821144953227
3561.937,-0.0152144876083,0.0936699611755
3563.865,-0.0151978955403,0.0992765370039
3565.794,-0.0151714440478,0.0941222173218
3567.722,-0.0151351605559,0.090045703364
3569.651,-0.0150890074263,0.0962084858453
3571.579,-0.0150330325106,0.101454239425
3573.508,-0.0149671777437,0.0976604962518
3575.436,-0.0148915114043,0.0838604793615
3577.365,-0.0148059550003,0.070550926192
3579.293,-0.014710597237,0.0665270331008
3581.222,-0.0146053391958,0.0644486627579
3583.15,-0.0144902900088,0.060527386946
3585.079,-0.0143653303304,0.0561883364963
3587.007,-0.0142305897196,0.0557826972704
3588.936,-0.014085928404,0.0656107439301
3590.864,-0.0139314963694,0.0765373793169
3592.793,-0.0137671334166,0.090860027382
3594.721,-0.0135930099582,0.111260047257
3596.65,-0.0134089453682,0.130380541446
3598.578,-0.0132151304861,0.131814645295
3600.507,-0.0130113642589,0.109808089216
3602.435,-0.0127978579529,0.0818047314999
3604.364,-0.0125743900886,0.0613856707921
3606.292,-0.0123411923588,0.0458750041449
3608.221,-0.0120980228573,0.0365183200371
3610.149,-0.0118451337038,0.0336469127394
3612.078,-0.011582262565,0.0308595293193
3614.006,-0.0113096819877,0.0291157064494
3615.935,-0.0110271092118,0.0264076813335
3617.863,-0.0107348372107,0.0220109920676
3619.792,-0.0104325627976,0.0187510708336
3621.72,-0.0101205993727,0.0253237733341
3623.649,-0.0097986233224,0.028044352626
3625.577,-0.0094669684737,0.0265325704145
3627.506,-0.00912529078624,0.0239706359798
3629.434,-0.00877394451374,0.0178525859774
3631.363,-0.00841256518911,0.0196255440631
3633.291,-0.00804152749281,0.0183811615775
3635.22,-0.00766044653099,0.0184999289933
3637.148,-0.00726971741091,0.0246527154904
3639.077,-0.00686893481191,0.0249094685226
3641.005,-0.00645851426804,0.0235008674471
3642.934,-0.00603803003185,0.0228595199742
3644.862,-0.00560791806418,0.0200433774799
3646.791,-0.00516773219081,0.011759261555
3648.719,-0.00471792879935,0.0103987131924
3650.648,-0.00425804128879,0.0112447996028
3652.576,-0.00378854647355,0.0157055585023
3654.505,-0.00330895732581,0.0166896305291
3656.433,-0.00281977108677,0.0143870408735
3658.362,-0.00232048030184,0.0159973225135
3660.29,-0.00181160263902,0.0194260775202
3662.219,-0.0012926102169,0.0203485083267
3664.147,-0.000764041130285,0.01950759718
3666.076,-0.000225347070987,0.0151363952869
3668.004,0.000322913439419,0.00943903945657
3669.933,0.000881309135899,0.006317720481
3671.861,0.0014492610701,0.00788107350991
3673.79,0.00202735840377,0.00361097172865
3675.718,0.00261500176175,-0.00261500176175
3677.647,0.00321280073261,0.00218091199356
3679.575,0.00382013551438,0.00515186488994
3681.504,0.00443763612242,0.00553001777427
3683.432,0.00506466232799,0.00714952952484
3685.361,0.00570186457321,0.00631926147551
3687.289,0.00634858220257,0.000534062091375
3689.218,0.00700548608498,-0.00626253652468
3691.146,0.00767189513813,-0.0021225167898
3693.075,0.00834850065772,0.00296960305198
3695.003,0.00903460113466,0.00381589921913
3696.932,0.00973090829143,0.0050684447865
3698.86,0.0104367001922,0.00436265288577
