baseline wavenumber (cm-1),baseline absorbance (cm-1),baseline-subtracted absorbance (cm-1)
3199.379,0.182063074901,9.32587340685e-15
3201.308,0.180153689617,0.00130390666271
3203.236,0.178255139877,6.53897903322e-05
3205.165,0.17636545623,0.00110447200173
3207.093,0.174486597914,0.00398403788933
3209.021,0.172617582756,0.00400022781676
3210.95,0.170757449011,0.00141984806736
3212.878,0.168908125278,0.00443818019072
3214.807,0.16706769317,0.00686943409172
3216.736,0.165237114435,0.00597485362345
3218.664,0.16341733039,0.00840466496069
3220.593,0.161606453292,0.00925678334043
3222.521,0.15980636067,0.00521486646019
3224.449,0.158016111208,0.0072264845669
3226.378,0.156234784012,0.00767707285686
3228.306,0.154464225973,0.00778534443012
3230.235,0.152702600414,0.0108261572933
3232.164,0.150950828228,0.014571258096
3234.092,0.149209809878,0.0152726524695
3236.021,0.147477739328,0.0140303977383
3237.949,0.145756412402,0.0126050553024
3239.877,0.144044928635,0.0117243021342
3241.806,0.142342407987,0.0119914644476
3243.734,0.140650615644,0.013076261946
3245.663,0.138967796634,0.0165957331346
3247.592,0.137294830996,0.0198157522445
3249.52,0.135632578341,0.0186345802557
3251.448,0.133980168846,0.0154947123836
3253.377,0.13233675311,0.0160429092779
3255.305,0.130704035038,0.0194344467171
3257.234,0.129080320939,0.0190026670323
3259.162,0.127467294291,0.0191671947418
3261.091,0.125863281829,0.0187809110344
3263.02,0.12426912274,0.0200425117488
3264.948,0.122685635781,0.0213252810293
3266.876,0.12111199198,0.0223040597738
3268.805,0.119547382793,0.0220370708613
3270.733,0.117993430416,0.022471544819
3272.662,0.116448522866,0.0204983082267
3274.591,0.114913468689,0.0220823869669
3276.519,0.113389056,0.0240995723229
3278.448,0.11187370346,0.0263462500425
3280.376,0.110368982195,0.0264863700739
3282.304,0.10887410409,0.0274819052095
3284.233,0.107388301452,0.0287215742181
3286.161,0.10591311477,0.0282241540059
3288.09,0.104447013769,0.0255812890717
3290.019,0.10299076614,0.0222533458584
3291.947,0.101545119147,0.0231885309088
3293.875,0.100109315313,0.024567729062
3295.804,0.0986826175859,0.026883439222
3297.732,0.0972665051757,0.0278679333162
3299.661,0.0958595090859,0.0266599491169
3301.589,0.0944630880995,0.02555359036
3303.518,0.0930757936469,0.0265926587942
3305.447,0.091698352567,0.0293458200803
3307.375,0.0903314712689,0.0269090017928
3309.303,0.0889744331301,0.0264910475128
3311.232,0.0876265419519,0.0302952209107
3313.16,0.0862891952369,0.0361160407886
3315.089,0.0849610056959,0.036103383266
3317.017,0.0836433504046,0.0325600257199
3318.946,0.0823348625008,0.034972324399
3320.875,0.0810362279696,0.0350979072775
3322.803,0.0797481123667,0.0316589431271
3324.731,0.0784698399231,0.0335654375459
3326.66,0.0772007552936,0.0346262941353
3328.588,0.0759421742737,0.0356953472061
3330.517,0.0746927912815,0.0373672511728
3332.445,0.0734539016854,0.0371116497146
3334.374,0.0722242203303,0.0351724237615
3336.302,0.071005022158,0.033321774567
3338.231,0.0697950424401,0.0330367578227
3340.159,0.0685955356916,0.0368355772165
3342.088,0.0674052576109,0.0385519848838
3344.016,0.0662254422862,0.0380594055861
3345.945,0.0650548658426,0.0383338938865
3347.873,0.0638947419417,0.0425820598373
3349.802,0.0627438671354,0.0449100295593
3351.73,0.0616034346583,0.0433066027419
3353.659,0.0604722614891,0.0412466306569
3355.587,0.0593515204358,0.0424300422854
3357.516,0.0582400489038,0.0468994436667
3359.444,0.0571389992742,0.0495141898494
3361.373,0.0560472293794,0.0447690043212
3363.302,0.0549653128572,0.0448967107958
3365.23,0.0538938029161,0.0487752560145
3367.158,0.0528321361341,0.0490565730542
3369.087,0.0517797695137,0.0452373132721
3371.015,0.0507377941555,0.0434722533528
3372.944,0.0497051291723,0.0412879972808
3374.872,0.0486828452379,0.0427070263885
3376.801,0.0476698818918,0.0420713492817
3378.729,0.0466672893812,0.0419660877541
3380.658,0.0456740276724,0.0425560339874
3382.586,0.0446911265856,0.0477029904669
3384.515,0.0437175665139,0.0504247563407
3386.443,0.0427543568509,0.0494653944885
3388.372,0.0418004984164,0.0498066985916
3390.3,0.0408569801771,0.0479411599219
3392.229,0.0399228233798,0.0445566065201
3394.157,0.0389989965644,0.0463744998472
3396.086,0.0380845414043,0.0480061287666
3398.014,0.0371804060126,0.0519093544241
3399.943,0.0362856524897,0.0538599049752
3401.871,0.0354012085218,0.0533256690684
3403.8,0.0345261566361,0.0488014487415
3405.728,0.033661404092,0.0466302162456
3407.657,0.0328060538434,0.0507201768247
3409.585,0.0319609927232,0.0535499746275
3411.514,0.0311253441118,0.0477177772872
3413.442,0.0302999744153,0.0472942841514
3415.371,0.0294840274411,0.0487440125872
3417.299,0.0286783491684,0.0493283222154
3419.228,0.0278821038314,0.0485163597287
3421.156,0.0270961169825,0.0494883366716
3423.085,0.0263195732826,0.0479435420514
3425.013,0.0255532778575,0.047874903685
3426.942,0.0247964357949,0.0487373759912
3428.87,0.0240498317936,0.0517911668924
3430.799,0.0233126913681,0.049108717709
3432.727,0.0225857787906,0.0490300101511
3434.656,0.0218683400023,0.0527566473625
3436.584,0.0211611188485,0.0544312191682
3438.513,0.0204633816974,0.0542308465447
3440.441,0.0197758519675,0.0536204888796
3442.37,0.0190978164536,0.0512372689603
3444.298,0.0184299781474,0.0534425579892
3446.227,0.0177716442707,0.0591327325614
3448.155,0.0171234973883,0.0592734499482
3450.084,0.0164848651488,0.0573764509333
3452.012,0.0158564096902,0.0611237783215
3453.941,0.0152374790879,0.060347277811
3455.869,0.0146287150531,0.0601145377519
3457.798,0.0140294860879,0.0622896284375
3459.726,0.0134404134769,0.0655260274409
3461.655,0.0128608861489,0.0670526891063
3463.583,0.0122915049617,0.0708844780566
3465.512,0.0117316792709,0.0701499542073
3467.44,0.0111819895075,0.0713480822604
3469.369,0.0106418654539,0.0745441246401
3471.297,0.0101118671143,0.0794918931202
3473.226,0.00959144469783,0.0845882783387
3475.154,0.009081137782,0.0940124637544
3477.083,0.00858041700275,0.0995844470425
3479.011,0.00808980151071,0.0996479928894
3480.94,0.00760878236864,0.100431245934
3482.868,0.00713785830039,0.106775514792
3484.797,0.00667654079551,0.110534113202
3486.725,0.00622530815106,0.110333369702
3488.654,0.00578369228336,0.107807735999
3490.582,0.00535215106269,0.105015280455
3492.511,0.00493023683218,0.102456299102
3494.439,0.0045183870353,0.10410083868
3496.368,0.00411617444197,0.101304830309
3498.296,0.00372401606889,0.10067758102
3500.225,0.00334150511274,0.104732890925
3502.153,0.00296903816345,0.106082816683
3504.082,0.00260622884449,0.10553993511
3506.01,0.00225345331898,0.112199189964
3507.939,0.00191034563721,0.121291413182
3509.867,0.00157726153549,0.130286682667
3511.796,0.0012538554909,0.140153200003
3513.724,0.000940462812981,0.147318407095
3515.653,0.00063675840558,0.152850050449
3517.581,0.000343057151444,0.165853748671
3519.51,5.90543812251e-05,0.182454844335
3521.438,-0.00021495544912,0.198681042581
3523.367,-0.000479256582153,0.209128301361
3525.295,-0.000733574988704,0.214695467236
3527.224,-0.000978174484555,0.215040137489
3529.152,-0.00121280146732,0.204693545428
3531.081,-0.00143769932598,0.1881712483
3533.009,-0.00165263488496,0.176199284031
3534.938,-0.00185783110643,0.167243962715
3536.866,-0.00205307524162,0.166943401735
3538.795,-0.00223856982591,0.166535547487
3540.723,-0.0024141225373,0.166119267589
3542.652,-0.00257991548441,0.163405751934
3544.58,-0.00273577677201,0.156842721076
3546.509,-0.00288186808194,0.141091208019
3548.437,-0.00301803794575,0.128140852057
3550.366,-0.00314442761849,0.125306057053
3552.294,-0.00326090605851,0.133770357186
3554.223,-0.00336759409407,0.140700051387
3556.151,-0.00346438111029,0.154632884092
3558.08,-0.00355136750866,0.184738570582
3560.008,-0.0036284631011,0.220449447636
3561.937,-0.00369574786229,0.245342872092
3563.865,-0.00375315203094,0.261757801783
3565.794,-0.00380073515494,0.277611510451
3567.722,-0.0038384478998,0.309204868601
3569.651,-0.00386632938661,0.346830041102
3571.579,-0.00388435070768,0.382047698529
3573.508,-0.00389253055731,0.379557647307
3575.436,-0.00389086045459,0.324189556502
3577.365,-0.00387933866704,0.252665854385
3579.293,-0.00385797714052,0.193226722718
3581.222,-0.00382675371579,0.144923488781
3583.15,-0.00378570076548,0.113648735234
3585.079,-0.00373477570356,0.101055608616
3587.007,-0.00367403132946,0.100765409071
3588.936,-0.00360340463035,0.100894923886
3590.864,-0.00352296883247,0.10092769945
3592.793,-0.00343264049618,0.106867392341
3594.721,-0.0033325132745,0.127503644377
3596.65,-0.00322248330102,0.143524717204
3598.578,-0.00310266465556,0.142722597942
3600.507,-0.0029729330449,0.123248885739
3602.435,-0.00283342297564,0.0927101034568
3604.364,-0.00268398972779,0.0684805125217
3606.292,-0.00252478823474,0.0604581754782
3608.221,-0.00235565334972,0.0565667116738
3610.149,-0.00217676043288,0.0545749207483
3612.078,-0.00198792391066,0.054706007404
3614.006,-0.00178933957003,0.0551457531958
3615.935,-0.00158080141063,0.0454860879769
3617.863,-0.00136252564621,0.0449327267985
3619.792,-0.00113428584963,0.0522289992834
3621.72,-0.000896318661415,0.0483526008812
3623.649,-0.000648377227645,0.0400717068547
3625.577,-0.000390718615648,0.035928977991
3627.506,-0.000123075544693,0.0368727975704
3629.434,0.000154274491099,0.0423803459476
3631.363,0.000441619199236,0.0351598161591
3633.291,0.000738660658822,0.0318950197212
3635.22,0.00104570700414,0.0341685859303
3637.148,0.00136243988752,0.0342066493675
3639.077,0.00168918787002,0.0298897062976
3641.005,0.00202561217719,0.0283524329052
3642.934,0.00237206179688,0.0245843720452
3644.862,0.00272817752784,0.0186975780569
3646.791,0.00309432878471,0.0248673612992
3648.719,0.00347013593946,0.0391195739564
3650.648,0.00385598883352,0.0372255839958
3652.576,0.00425148741206,0.0241883185113
3654.505,0.0046570419433,0.0190445652537
3656.433,0.00507223194563,0.0254255948006
3658.362,0.00549748811406,0.0196460477194
3660.29,0.00593236954018,0.014215714964
3662.219,0.00637732734579,0.0152187506892
3664.147,0.0068319001957,0.0156122522353
3666.076,0.0072965596385,0.013010222935
3668.004,0.0077708239122,0.0142978104758
3669.933,0.00825518499218,0.0163217886255
3671.861,0.00874914068967,0.0159718741693
3673.79,0.00925320340684,0.0137959222376
3675.718,0.00976685052812,0.0201699734889
3677.647,0.0102906148825,0.0151506061829
3679.575,0.0108239534275,0.0119557898253
3681.504,0.0113674194191,0.0100264954702
3683.432,0.0119204493879,0.00775912202619
3685.361,0.0124836170167,0.00310872100011
3687.289,0.0130563384093,0.00309599152093
3689.218,0.0136392076752,0.0102322165641
3691.146,0.0142316204917,0.00919504482724
3693.075,0.0148341913948,0.00305573077243
3695.003,0.015446295635,-0.000100596655919
3696.932,0.0160685681753,-0.00171397401779
3698.86,0.0167003638393,-0.00234576968181
