baseline wavenumber (cm-1),baseline absorbance (cm-1),baseline-subtracted absorbance (cm-1)
3199.379,0.212099348024,1.77080572428e-14
3201.308,0.210206837113,0.000461322191421
3203.236,0.208325152998,0.00166585074175
3205.165,0.206452343725,0.00130498468928
3207.093,0.204590351034,0.00162343649286
3209.021,0.202738201502,0.00110689098784
3210.95,0.20089494213,0.00263528126023
3212.878,0.199062484022,0.00400266305172
3214.807,0.197238926287,0.00498603075293
3216.736,0.195425221925,0.00368925295579
3218.664,0.193622303506,0.00366456599796
3220.593,0.191828300781,0.00350759328555
3222.521,0.190045073785,0.00529279137214
3224.449,0.188271689948,0.00616104026495
3226.378,0.186507237125,0.00746430841193
3228.306,0.184753544712,0.00756890550492
3230.235,0.183008793527,0.00822849546564
3232.164,0.181273895713,0.00748057714624
3234.092,0.179549742989,0.00931202796035
3236.021,0.177834546813,0.010542689617
3237.949,0.176130085512,0.0114284407187
3239.877,0.17443546737,0.011167130426
3241.806,0.172749821096,0.0119738724245
3243.734,0.171074894378,0.0109473435676
3245.663,0.169408949741,0.0112318063488
3247.592,0.167752858477,0.0121584929838
3249.52,0.166107471447,0.0138499732104
3251.448,0.164471927577,0.013562793943
3253.377,0.162845386215,0.0141583538036
3255.305,0.161229533768,0.0144107169141
3257.234,0.159622694043,0.0149078325923
3259.162,0.15802653302,0.014317043246
3261.091,0.156439394932,0.0158265506864
3263.02,0.154862110216,0.0161823656761
3264.948,0.153295488882,0.0169741967545
3266.876,0.151738710707,0.0169327236408
3268.805,0.150190975893,0.0181723618208
3270.733,0.148653889142,0.0181432401418
3272.662,0.147125855965,0.0185706971536
3274.591,0.145607676161,0.0174867845692
3276.519,0.144100129098,0.017908917703
3278.448,0.142601650931,0.0180560868637
3280.376,0.141113795292,0.0201292553502
3282.304,0.139635782812,0.0203710907351
3284.233,0.138166854547,0.0212367641737
3286.161,0.136708533491,0.0211352449387
3288.09,0.135259306862,0.0220547535843
3290.019,0.133819933607,0.0218667135172
3291.947,0.132391152239,0.0230225240975
3293.875,0.130972214031,0.0229833100771
3295.804,0.129562390677,0.0240435428112
3297.732,0.128163143892,0.0236518262885
3299.661,0.126773022176,0.025065601093
3301.589,0.125393466815,0.0253699012229
3303.518,0.124023046736,0.0264187808191
3305.447,0.122662480029,0.0259400166858
3307.375,0.121312464357,0.0278657929972
3309.303,0.119972291843,0.0276575474371
3311.232,0.118641275038,0.0275403685481
3313.16,0.117320793949,0.0265908102158
3315.089,0.116009478781,0.028063653737
3317.017,0.114708689115,0.0283772302217
3318.946,0.113417075585,0.0286005631498
3320.875,0.112135315427,0.0282860936505
3322.803,0.110864065449,0.0300890327009
3324.731,0.109602658631,0.0309723944367
3326.66,0.108350448375,0.0318442852751
3328.588,0.107108732981,0.0306139497244
3330.517,0.105876224362,0.0310273943587
3332.445,0.104654200391,0.0316608708715
3334.374,0.103441393409,0.0328331441427
3336.302,0.102239060862,0.0319423300201
3338.231,0.101045955518,0.0327266109434
3340.159,0.0998633143947,0.0330544557458
3342.088,0.0986899106873,0.0348109485061
3344.016,0.0975269609881,0.034918353881
3345.945,0.0963732589178,0.0349472707497
3347.873,0.0952300006424,0.0348067930501
3349.802,0.0940960002093,0.0370150884393
3351.73,0.0929724333576,0.0373772078028
3353.659,0.0918581345617,0.0376634968949
3355.587,0.0907542591339,0.0369366334164
3357.516,0.0896596619752,0.0382646784676
3359.444,0.0885754779711,0.0386651972538
3361.373,0.0875005824496,0.0388780691222
3363.302,0.0864355403006,0.0376347113925
3365.23,0.085380895985,0.0380914582049
3367.158,0.0843360948285,0.0386583962258
3369.087,0.0833006025813,0.0401171170184
3371.015,0.0822754928487,0.0395449357372
3372.944,0.0812597022387,0.0404151183415
3374.872,0.0802542839298,0.0405807004025
3376.801,0.079258194957,0.0416257128566
3378.729,0.0782724680719,0.0413073863706
3380.658,0.0772960807363,0.0417801853104
3382.586,0.076330045275,0.0411756658339
3384.515,0.0753733595766,0.0415219704548
3386.443,0.0744270155391,0.0415447321613
3388.372,0.0734900314778,0.0434473484878
3390.3,0.0725633788641,0.0448659651165
3392.229,0.07164609644,0.0453238317921
3394.157,0.0707391352501,0.0442984165542
3396.086,0.0698415544632,0.0459140302937
3398.014,0.0689542846971,0.0457681958447
3399.943,0.0680764055474,0.0479245547276
3401.871,0.067208827205,0.0484679644658
3403.8,0.0663506496925,0.0494272235512
3405.728,0.065502762774,0.0501926784471
3407.657,0.0646642868987,0.0518134751553
3409.585,0.0638360914039,0.0509970229194
3411.514,0.0630173171657,0.0515997352956
3413.442,0.0622088130948,0.0515319126709
3415.371,0.0614097404938,0.0528860241883
3417.299,0.0606209278466,0.0524395694747
3419.228,0.0598415568829,0.0528477689031
3421.156,0.0590724356595,0.0524722423957
3423.085,0.0583127663329,0.0540561814079
3425.013,0.0575633365333,0.0552143850881
3426.942,0.0568233688439,0.0570967767136
3428.87,0.0560936304681,0.0579996678237
3430.799,0.0553733644158,0.0595069550019
3432.727,0.0546633174638,0.0593598807571
3434.656,0.0539627530488,0.0613393797724
3436.584,0.0532723975206,0.0619460902991
3438.513,0.0525915347427,0.0632450668948
3440.441,0.0519208706383,0.0629745099338
3442.37,0.0512597094976,0.0632149190276
3444.298,0.050608736817,0.0628175747164
3446.227,0.0499672773135,0.0621667063113
3448.155,0.0493359960566,0.0598580805632
3450.084,0.0487142381903,0.0633605116328
3452.012,0.0481026483573,0.0653211361368
3453.941,0.0475005921282,0.0668709331928
3455.869,0.0469086937189,0.0662021422257
3457.798,0.046326339127,0.0676066437903
3459.726,0.0457541321415,0.067163890703
3461.655,0.0451914791867,0.0683436466598
3463.583,0.044638963625,0.0686465412774
3465.512,0.0440960123075,0.0703561761086
3467.44,0.0435631881696,0.0699938723783
3469.369,0.0430399384892,0.0718991093224
3471.297,0.0425268057751,0.0717798251761
3473.226,0.0420232577319,0.07260668263
3475.154,0.0415298164416,0.0726458127912
3477.083,0.0410459700356,0.0751376951823
3479.011,0.040572220169,0.075551301513
3480.94,0.0401080754002,0.0743739320798
3482.868,0.0396540169575,0.0735240887738
3484.797,0.0392095738258,0.0769313844275
3486.725,0.0387752068069,0.0761804689234
3488.654,0.0383504653125,0.0752909983487
3490.582,0.0379357897173,0.0753100406678
3492.511,0.03753074986,0.0764275034504
3494.439,0.0371357656887,0.074961575866
3496.368,0.0367504274686,0.0737320348785
3498.296,0.036375134721,0.0729986143945
3500.225,0.0360094981381,0.0742925336015
3502.153,0.0356538968143,0.0718423126267
3504.082,0.0353079618686,0.0702300448028
3506.01,0.0349720519686,0.0725807631532
3507.939,0.0346458186601,0.0770170237537
3509.867,0.0343296001839,0.0776768690368
3511.796,0.0340230685125,0.0810786700905
3513.724,0.0337265414601,0.0806003058056
3515.653,0.033439711426,0.0801752183223
3517.581,0.0331628757973,0.0792917891172
3519.51,0.0328957474004,0.0801682372352
3521.438,0.0326386031955,0.0805726067509
3523.367,0.0323911764357,0.0795908310443
3525.295,0.0321537236547,0.0786032257034
3527.224,0.0319259985321,0.0788849789267
3529.152,0.0317082371748,0.0774430819397
3531.081,0.0315002136894,0.0782574937805
3533.009,0.031302143756,0.0787379856284
3534.938,0.0311138219077,0.0791813362849
3536.866,0.0309354433981,0.0750066368607
3538.795,0.030766823187,0.0762743675539
3540.723,0.0306081361011,0.0777148700648
3542.652,0.0304592175273,0.0773163308403
3544.58,0.0303202218652,0.0697985489829
3546.509,0.0301910049285,0.0645622044114
3548.437,0.0300717006902,0.0662666698749
3550.366,0.0299621853907,0.0710144142252
3552.294,0.0298625725762,0.0687818729914
3554.223,0.0297727589139,0.0737946624952
3556.151,0.0296928375232,0.0823114079029
3558.08,0.029622725498,0.090255875533
3560.008,0.0295624955311,0.095657306349
3561.937,0.0295120851432,0.102674612522
3563.865,0.0294715466,0.106633932021
3565.794,0.0294408378493,0.098519336011
3567.722,0.0294199907299,0.082825890196
3569.651,0.0294089836164,0.0938438213973
3571.579,0.0294078279208,0.103939387282
3573.508,0.0294165224444,0.10270457328
3575.436,0.0294350581726,0.0921316556654
3577.365,0.0294634543334,0.0821472299888
3579.293,0.0295016814855,0.0736243672358
3581.222,0.0295497792834,0.0699051888759
3583.15,0.0296076978593,0.0691160462022
3585.079,0.0296754972944,0.0692852830553
3587.007,0.029753107294,0.0593248771394
3588.936,0.0298406083664,0.0641168868322
3590.864,0.0299379097898,0.0828706922521
3592.793,0.0300451124993,0.0975826546087
3594.721,0.0301621053465,0.112446607885
3596.65,0.0302890096932,0.132783971202
3598.578,0.0304256939642,0.138275306743
3600.507,0.0305722999481,0.120073206976
3602.435,0.0307286756429,0.0901885890898
3604.364,0.030894983264,0.0728844567441
3606.292,0.0310710503825,0.057934963971
3608.221,0.0312570596408,0.0411081986226
3610.149,0.0314528181832,0.036597773144
3612.078,0.0316585290786,0.0362685911074
3614.006,0.0318739790448,0.0276184398373
3615.935,0.0320993915774,0.033843952201
3617.863,0.0323345329673,0.0304251455933
3619.792,0.0325796471372,0.0199289447965
3621.72,0.0328344799509,0.0258921954762
3623.649,0.0330992957579,0.0357611611308
3625.577,0.0333738199954,0.0349434245209
3627.506,0.0336583374396,0.025311237007
3629.434,0.0339525531009,-0.00303458079727
3631.363,0.0342567721823,0.0173381434146
3633.291,0.0345706792674,0.029418353382
3635.22,0.034894599986,0.0309502397997
3637.148,0.0352281984948,0.0336620774578
3639.077,0.0355718208506,0.0333705626529
3641.005,0.0359251107833,0.0324062346125
3642.934,0.0362884347762,0.0328770357585
3644.862,0.0366614161327,0.0346840806833
3646.791,0.0370444417628,0.0205932818802
3648.719,0.0374371145431,-0.00727230103855
3650.648,0.0378398418104,-0.0103153295289
3652.576,0.0382522060144,0.0120625620034
3654.505,0.0386746349189,0.025520604139
3656.433,0.0391066905467,0.0154083200668
3658.362,0.0395488210884,0.0203702125718
3660.29,0.04000056814,0.0274276134025
3662.219,0.0404624003189,0.0302771124679
3664.147,0.0409338387943,0.0315154687969
3666.076,0.0414153726104,0.0324416475049
3668.004,0.0419065025096,0.0252182826921
3669.933,0.0424077379628,0.00172361754109
3671.861,0.0429185592858,0.000831314362229
3673.79,0.0434394963762,0.00817507958659
3675.718,0.043970009123,-0.0233022642529
3677.647,0.0445106478506,-0.00525748905145
3679.575,0.0450608520212,0.00683852127306
3681.504,0.045621192386,0.012250080231
3683.432,0.0461910879803,0.0172206172658
3685.361,0.0467711299823,0.0176289508829
3687.289,0.0473607170005,0.00781920819916
3689.218,0.0479604606396,-0.0140602786928
3691.146,0.0485697390816,-0.0145850529399
3693.075,0.0491891843579,-0.00132478528787
3695.003,0.0498181542237,0.00837450725415
3696.932,0.0504573011372,0.00809045990598
3698.86,0.0511059624267,0.00744179861644
