wavenumber (/cm),baseline value (/cm),baseline-subtracted absorbance (/cm),
3.199378999999999905e+03,2.160141261497940945e-01,-1.593828969970068066e-03
3.201307999999999993e+03,2.139178767754721378e-01,3.260330597647520534e-04
3.203235999999999876e+03,2.118332630808055228e-01,7.953632206195715426e-04
3.205164999999999964e+03,2.097581226034641588e-01,-4.803504413294357178e-04
3.207092999999999847e+03,2.076946068628622299e-01,-1.285024329758188699e-03
3.209021000000000186e+03,2.056416373642662165e-01,-7.260404775787376863e-04
3.210949999999999818e+03,2.035981574959606633e-01,3.167318197169199934e-04
3.212878000000000156e+03,2.015662859514293359e-01,7.216954495611327403e-04
3.214806999999999789e+03,1.995439149801079282e-01,2.235974023845344050e-04
3.216735999999999876e+03,1.975321011937190008e-01,1.832601121048882398e-03
3.218664000000000215e+03,1.955318793152969192e-01,1.989600518929157680e-03
3.220592999999999847e+03,1.935411744258921374e-01,1.170743091544301784e-03
3.222521000000000186e+03,1.915620505015311892e-01,5.313488717628711555e-04
3.224449000000000069e+03,1.895934728191868146e-01,6.465959162824663764e-04
3.226378000000000156e+03,1.876344285388142907e-01,1.758071208481593040e-03
3.228306000000000040e+03,1.856869488105274968e-01,3.805116286005327808e-03
3.230235000000000127e+03,1.837490134271391184e-01,4.147479042283630513e-03
3.232164000000000215e+03,1.818216352286832205e-01,3.779800129650734419e-03
3.234092000000000098e+03,1.799058051665092250e-01,4.286047658720537612e-03
3.236021000000000186e+03,1.779995358650374726e-01,5.083957514119386012e-03
3.237949000000000069e+03,1.761048037569246105e-01,5.246151463938475423e-03
3.239876999999999953e+03,1.742206178908247693e-01,6.058872658048053417e-03
3.241806000000000040e+03,1.723460091983852749e-01,5.678856868530646196e-03
3.243733999999999924e+03,1.704829212863430143e-01,6.400733823330284622e-03
3.245663000000000011e+03,1.686294214908912181e-01,6.725374829739338978e-03
3.247592000000000098e+03,1.667864788803683496e-01,5.608648987821096554e-03
3.249519999999999982e+03,1.649550406344424403e-01,6.815403113662021894e-03
3.251447999999999865e+03,1.631341486305224464e-01,8.551386596405530227e-03
3.253376999999999953e+03,1.613228666290353885e-01,8.238439344885328808e-03
3.255304999999999836e+03,1.595230725791800808e-01,9.232613259291255758e-03
3.257233999999999924e+03,1.577328994746771684e-01,1.033037758991373067e-02
3.259161999999999807e+03,1.559542033788794413e-01,9.705353883831424611e-03
3.261090999999999894e+03,1.541851391713606745e-01,8.799799674287678286e-03
3.263019999999999982e+03,1.524266321487743880e-01,1.066292612475217005e-02
3.264947999999999865e+03,1.506795857190930121e-01,1.121114510067844350e-02
3.266876000000000204e+03,1.489430855314175517e-01,1.251855401169366111e-02
3.268804999999999836e+03,1.472162391178670759e-01,1.294144813574660269e-02
3.270733000000000175e+03,1.455008368842527489e-01,1.473822103548827478e-02
3.272661999999999807e+03,1.437950993676864186e-01,1.466441746239532939e-02
3.274590999999999894e+03,1.420999190360490161e-01,1.389623986418331292e-02
3.276518999999999778e+03,1.404161664685510402e-01,1.228271152599047511e-02
3.278447999999999865e+03,1.387420950338977832e-01,1.335383137871692938e-02
3.280376000000000204e+03,1.370794404204609407e-01,1.510442696051517153e-02
3.282304000000000087e+03,1.354273320490335664e-01,1.558449449498744421e-02
3.284233000000000175e+03,1.337849212234161200e-01,1.514058165740861384e-02
3.286161000000000058e+03,1.321539108060498791e-01,1.570973015220333835e-02
3.288090000000000146e+03,1.305326088774130255e-01,1.717031238004151916e-02
3.290018999999999778e+03,1.289218641337122051e-01,1.888011706511516508e-02
3.291947000000000116e+03,1.273225033824623154e-01,1.933573981980174494e-02
3.293875000000000000e+03,1.257336888732147884e-01,1.956702880595218019e-02
3.295804000000000087e+03,1.241546047385497786e-01,2.016006219766763863e-02
3.297731999999999971e+03,1.225868881833669377e-01,2.181016023470627729e-02
3.299661000000000058e+03,1.210289129456825208e-01,2.157191592321439089e-02
3.301588999999999942e+03,1.194822943445643659e-01,2.164729223180250628e-02
3.303518000000000029e+03,1.179454280038640945e-01,2.235175182025384011e-02
3.305447000000000116e+03,1.164191188480963035e-01,2.339185861071269024e-02
3.307375000000000000e+03,1.149041499130873945e-01,2.215589254117311668e-02
3.309302999999999884e+03,1.133997272200915063e-01,2.216430795629564798e-02
3.311231999999999971e+03,1.119050786733595260e-01,2.198959432775238199e-02
3.313159999999999854e+03,1.104217539344212184e-01,2.190564927997273870e-02
3.315088999999999942e+03,1.089482142846698309e-01,2.267818822215317276e-02
3.317016999999999825e+03,1.074859874997962095e-01,2.439918383346961761e-02
3.318945999999999913e+03,1.060335567470325202e-01,2.400586506637081285e-02
3.320875000000000000e+03,1.045916831791977586e-01,2.522889702903019504e-02
3.322802999999999884e+03,1.031611060604333829e-01,2.809735952129077674e-02
3.324731000000000222e+03,1.017410751836855809e-01,2.873754606366096809e-02
3.326659999999999854e+03,1.003308622248866300e-01,2.756714646812841174e-02
3.328588000000000193e+03,9.893192930219285586e-02,2.677311466829124242e-02
3.330516999999999825e+03,9.754282524037805047e-02,2.622094712391986882e-02
3.332445000000000164e+03,9.616499027174896241e-02,2.596378765203533057e-02
3.334373999999999796e+03,9.479699510691830255e-02,2.841942054050905497e-02
3.336302000000000135e+03,9.344025809235034785e-02,3.038517403137341866e-02
3.338231000000000222e+03,9.209337182450383352e-02,2.871881861317926443e-02
3.340159000000000106e+03,9.075773276399701217e-02,2.898804708033719812e-02
3.342088000000000193e+03,8.943195539313109066e-02,3.024104571876606862e-02
3.344016000000000076e+03,8.811741428668540266e-02,3.098397053086232589e-02
3.345945000000000164e+03,8.681274581280717939e-02,3.095992172989947555e-02
3.347873000000000047e+03,8.551930266041907203e-02,3.149676930966061050e-02
3.349802000000000135e+03,8.423574308352499429e-02,3.159565285299548165e-02
3.351730000000000018e+03,8.296339788520157299e-02,3.181169561525321043e-02
3.353659000000000106e+03,8.170094720528808807e-02,3.017967545720035005e-02
3.355586999999999989e+03,8.044969996102580012e-02,2.937391269438704988e-02
3.357516000000000076e+03,7.920835817809646073e-02,3.056825154595088634e-02
3.359443999999999960e+03,7.797820888789885885e-02,3.229066809582681330e-02
3.361373000000000047e+03,7.675797600195366499e-02,3.259459652407459274e-02
3.363302000000000135e+03,7.554830030093739879e-02,3.349344638864093504e-02
3.365230000000000018e+03,7.434980067684904270e-02,3.291594277811893399e-02
3.367157999999999902e+03,7.316184729477370752e-02,3.411552054106969933e-02
3.369086999999999989e+03,7.198383220279680472e-02,3.371312524186098614e-02
3.371014999999999873e+03,7.081697677477905017e-02,3.307112592409877649e-02
3.372943999999999960e+03,6.966007057978274020e-02,3.368926733591504075e-02
3.374871999999999844e+03,6.851431310582967171e-02,3.444181749156238759e-02
3.376800999999999931e+03,6.737851580781395455e-02,3.395677176926059637e-02
3.378728999999999814e+03,6.625385628792201942e-02,3.359452135283391705e-02
3.380657999999999902e+03,6.513916788689400050e-02,3.234238472606465464e-02
3.382585999999999785e+03,6.403560632106319872e-02,3.389019980448004787e-02
3.384514999999999873e+03,6.294202681701932534e-02,3.522789130690662240e-02
3.386443000000000211e+03,6.185956320524965690e-02,3.559823523809413359e-02
3.388371999999999844e+03,6.078709259818637634e-02,3.579584483231990077e-02
3.390300000000000182e+03,5.972572694047784125e-02,3.712760369734691146e-02
3.392228999999999814e+03,5.867436523039870622e-02,3.735211814168226674e-02
3.394157000000000153e+03,5.763409752675485720e-02,3.718092319496735243e-02
3.396085999999999785e+03,5.660384471365986769e-02,3.714173296752876219e-02
3.398014000000000124e+03,5.558467496407359931e-02,3.769895992928518069e-02
3.399943000000000211e+03,5.457553104796275534e-02,3.725050756519787676e-02
3.401871000000000095e+03,5.357745925243762031e-02,3.782909083348173773e-02
3.403800000000000182e+03,5.258942423331092186e-02,3.800291378346831728e-02
3.405728000000000065e+03,5.161245039184692018e-02,3.933064068264990887e-02
3.407657000000000153e+03,5.064552426970436727e-02,3.966580697460986293e-02
3.409585000000000036e+03,4.968964838230505165e-02,3.931065486241314133e-02
3.411514000000000124e+03,4.874383115714309156e-02,3.917944792907923635e-02
3.413442000000000007e+03,4.780905322380135658e-02,3.839078504568194106e-02
3.415371000000000095e+03,4.688434489562709473e-02,3.704722287956729865e-02
3.417298999999999978e+03,4.597066491634649310e-02,3.748885191373529935e-02
3.419228000000000065e+03,4.506706548515282407e-02,3.802350360410211572e-02
3.421155999999999949e+03,4.417448345993690850e-02,3.854410544130626448e-02
3.423085000000000036e+03,4.329199292572738500e-02,3.716742282278140408e-02
3.425012999999999920e+03,4.242050885456905007e-02,3.800403375131367056e-02
3.426942000000000007e+03,4.155912721734367210e-02,3.857177341947015670e-02
3.428869999999999891e+03,4.070874110025002324e-02,3.937768364451876835e-02
3.430798999999999978e+03,3.986846836000879080e-02,3.937847392241300426e-02
3.432726999999999862e+03,3.903918019697272257e-02,3.841457498345768329e-02
3.434655999999999949e+03,3.822001635371563566e-02,3.818653373220359803e-02
3.436583999999999833e+03,3.741182614474425350e-02,3.745120832407189404e-02
3.438512999999999920e+03,3.661377119847131212e-02,3.442888522526255102e-02
3.440440999999999804e+03,3.582667894355751059e-02,3.396003893777255200e-02
3.442369999999999891e+03,3.504973289426871474e-02,3.377620463731911826e-02
3.444297999999999774e+03,3.428373859341959928e-02,3.494248196657223637e-02
3.446226999999999862e+03,3.352790144111139625e-02,3.475927130729639103e-02
3.448155000000000200e+03,3.278300509432341414e-02,3.467479334902012766e-02
3.450083999999999833e+03,3.204827683899935664e-02,3.579615862041607421e-02
3.452012000000000171e+03,3.132447844626895517e-02,3.696774838078020764e-02
3.453940999999999804e+03,3.061085908793259591e-02,3.674535237471765470e-02
3.455869000000000142e+03,2.990815864926688050e-02,3.634575826167996127e-02
3.457797999999999774e+03,2.921564818791111406e-02,3.676181062134764588e-02
3.459726000000000113e+03,2.853404570330297929e-02,3.824498997849201665e-02
3.461655000000000200e+03,2.786264413893135838e-02,3.697613075240591129e-02
3.463583000000000084e+03,2.720213960838790968e-02,3.662784118611317474e-02
3.465512000000000171e+03,2.655184694100043430e-02,3.742116427905406439e-02
3.467440000000000055e+03,2.591244036451811894e-02,3.798678130737109804e-02
3.469369000000000142e+03,2.528325659411123638e-02,3.711743076058393598e-02
3.471297000000000025e+03,2.466494797169360709e-02,3.848071057475310752e-02
3.473226000000000113e+03,2.405687309827087006e-02,3.753010759514863182e-02
3.475153999999999996e+03,2.345966242991082140e-02,3.682740923692406909e-02
3.477083000000000084e+03,2.287269645347222990e-02,3.766151965893049791e-02
3.479010999999999967e+03,2.229658373917686731e-02,3.878953776087357141e-02
3.480940000000000055e+03,2.173072665972242135e-02,3.859728304410836586e-02
3.482867999999999938e+03,2.117571189948463939e-02,4.040267686024434646e-02
3.484797000000000025e+03,2.063096371701433895e-02,4.191376487896247838e-02
3.486724999999999909e+03,2.009704691083769035e-02,4.150105275559323736e-02
3.488653999999999996e+03,1.957340762534798273e-02,4.084153223111597342e-02
3.490581999999999880e+03,1.906058877323602019e-02,4.188300770912523063e-02
3.492510999999999967e+03,1.855805838473401082e-02,4.343729186291556132e-02
3.494438999999999851e+03,1.806633748668318162e-02,4.294498364947352265e-02
3.496367999999999938e+03,1.758491599515821235e-02,4.239941636105282186e-02
3.498295999999999822e+03,1.711429305116851651e-02,4.589844322700797896e-02
3.500224999999999909e+03,1.665398045663124549e-02,4.433560814136705552e-02
3.502152999999999793e+03,1.620445546670268300e-02,4.378139311310103032e-02
3.504081999999999880e+03,1.576525176914955750e-02,4.574389611319129578e-02
3.506010000000000218e+03,1.533682473328212836e-02,4.721194712560783380e-02
3.507938999999999851e+03,1.491872993271314840e-02,4.614111035840151587e-02
3.509867000000000189e+03,1.451140085090329990e-02,4.893345915111813049e-02
3.511795999999999822e+03,1.411441494731846547e-02,5.139907944265420525e-02
3.513724000000000160e+03,1.372818381957330303e-02,4.931487693045166765e-02
3.515652999999999793e+03,1.335230681297261413e-02,4.660978759721623454e-02
3.517581000000000131e+03,1.298717363928503232e-02,4.539754282690289244e-02
3.519510000000000218e+03,1.263240552966848895e-02,4.295134055342031409e-02
3.521438000000000102e+03,1.228837031004559321e-02,4.312101005991286762e-02
3.523367000000000189e+03,1.195471109740964266e-02,4.379278713366252518e-02
3.525295000000000073e+03,1.163177383184788027e-02,4.495318523011504475e-02
3.527224000000000160e+03,1.131922351619607525e-02,4.516364315720911016e-02
3.529152000000000044e+03,1.101738420469899893e-02,4.826240958889216337e-02
3.531081000000000131e+03,1.072594278602778672e-02,4.908503467278113597e-02
3.533009000000000015e+03,1.044520142859184375e-02,4.894477127938312577e-02
3.534938000000000102e+03,1.017486890690832979e-02,4.976802000444302543e-02
3.536865999999999985e+03,9.915225503526414741e-03,5.121082321779146795e-02
3.538795000000000073e+03,9.666001878827046312e-03,5.026930591456202357e-02
3.540722999999999956e+03,9.427456429513370040e-03,4.810716400918035873e-02
3.542652000000000044e+03,9.199341701794594428e-03,4.594065627657384354e-02
3.544579999999999927e+03,8.981894206538498793e-03,4.681311236376362039e-02
3.546509000000000015e+03,8.774888375807421426e-03,4.546042952573903229e-02
3.548436999999999898e+03,8.578538834612459141e-03,4.596002378542185518e-02
3.550365999999999985e+03,8.392641900865527305e-03,4.679132656168372151e-02
3.552293999999999869e+03,8.217390313731698370e-03,4.807898085780371034e-02
3.554222999999999956e+03,8.052602276965359351e-03,5.176898874699076281e-02
3.556150999999999840e+03,7.898448643896216481e-03,5.591687532254452364e-02
3.558079999999999927e+03,7.754769504114022993e-03,5.919105077284925187e-02
3.560007999999999811e+03,7.621713825102460760e-03,6.201641414416858566e-02
3.561936999999999898e+03,7.499143582304412803e-03,6.272828995656132278e-02
3.563864999999999782e+03,7.387185857357536634e-03,6.418867586305077033e-02
3.565793999999999869e+03,7.285724511540081494e-03,6.100144823686770579e-02
3.567722000000000207e+03,7.194864740654338675e-03,5.518307926015419973e-02
3.569650999999999840e+03,7.114512291821029066e-03,5.562833618690121718e-02
3.571579000000000178e+03,7.044750474996419598e-03,5.498244046809452890e-02
3.573507999999999811e+03,6.985506923147255520e-03,5.205977762148017440e-02
3.575436000000000149e+03,6.936843060383779402e-03,5.081560816775709810e-02
3.577364999999999782e+03,6.898708405518760856e-03,4.974487796868509726e-02
3.579293000000000120e+03,6.871142496816418088e-03,4.943432601627351097e-02
3.581222000000000207e+03,6.854116738935545072e-03,4.933915122831389333e-02
3.583150000000000091e+03,6.847648784294335655e-03,5.048683014019772486e-02
3.585079000000000178e+03,6.851731923397608170e-03,5.239066168824679792e-02
3.587007000000000062e+03,6.866361922817532104e-03,5.314829490524264344e-02
3.588936000000000149e+03,6.891553958904950150e-03,5.881551164303555623e-02
3.590864000000000033e+03,6.927281912386007434e-03,6.998214899835875080e-02
3.592793000000000120e+03,6.973582845454018297e-03,7.891037550893775787e-02
3.594721000000000004e+03,7.030408752996208932e-03,9.333449572491736568e-02
3.596650000000000091e+03,7.097818583051918040e-03,1.071006045444118371e-01
3.598577999999999975e+03,7.175742444655242025e-03,1.112463742034797143e-01
3.600507000000000062e+03,7.264261171691543950e-03,9.766397091159961796e-02
3.602434999999999945e+03,7.363282987356001286e-03,7.569493999859333577e-02
3.604364000000000033e+03,7.472910611380001455e-03,5.912771609437150744e-02
3.606291999999999916e+03,7.593030381105592141e-03,4.981675431514420715e-02
3.608221000000000004e+03,7.723766902106632415e-03,4.493670009475980720e-02
3.610148999999999887e+03,7.864984625896909165e-03,4.433505580673213764e-02
3.612077999999999975e+03,8.016830043885647683e-03,4.126245834184150141e-02
3.614005999999999858e+03,8.179145721733505070e-03,3.661616409328694033e-02
3.615934999999999945e+03,8.352100036706389119e-03,3.267034007246150118e-02
3.617862999999999829e+03,8.535513668618932570e-03,3.009735805886504245e-02
3.619791999999999916e+03,8.729576880572409436e-03,3.085447244723504845e-02
3.621719999999999800e+03,8.934088466542533524e-03,3.337410924901385023e-02
3.623648999999999887e+03,9.149260575483708635e-03,3.041153999057288893e-02
3.625577000000000226e+03,9.374870115518518787e-03,2.998174567342282160e-02
3.627505999999999858e+03,9.611151121440286715e-03,2.658312766153736462e-02
3.629434000000000196e+03,9.857858615532677504e-03,2.295979022708305450e-02
3.631362999999999829e+03,1.011524851843859096e-02,2.839177665087277980e-02
3.633291000000000167e+03,1.038305396659922053e-02,3.001065875957054097e-02
3.635219999999999800e+03,1.066155276648572681e-02,3.152433624594719319e-02
3.637148000000000138e+03,1.095045616870393701e-02,3.171253786748318149e-02
3.639077000000000226e+03,1.125006386557814153e-02,3.102326070735217378e-02
3.641005000000000109e+03,1.156006522185393237e-02,3.164674767615460738e-02
3.642934000000000196e+03,1.188078181571228242e-02,2.842145208704693893e-02
3.644862000000000080e+03,1.221188112605275933e-02,2.427149095521663469e-02
3.646791000000000167e+03,1.255370661689525491e-02,1.648197517831340164e-02
3.648719000000000051e+03,1.290590388129331245e-02,1.032264155487361279e-02
3.650648000000000138e+03,1.326883826911640085e-02,1.213750965365711920e-02
3.652576000000000022e+03,1.364213348758269717e-02,2.444085448370980629e-02
3.654505000000000109e+03,1.402617677238993110e-02,2.669706188120346546e-02
3.656432999999999993e+03,1.442056994491380806e-02,2.456659269533667533e-02
3.658362000000000080e+03,1.482572212670518752e-02,2.520409693727931888e-02
3.660289999999999964e+03,1.524121325329019783e-02,2.373280878249239834e-02
3.662219000000000051e+03,1.566747433206572282e-02,2.197934665246870090e-02
3.664146999999999935e+03,1.610406341271186648e-02,2.114803402992415648e-02
3.666076000000000022e+03,1.655143338847153700e-02,1.653509243786999150e-02
3.668003999999999905e+03,1.700912042317881401e-02,1.197096650697360154e-02
3.669932999999999993e+03,1.747759929592263006e-02,9.417174786761739469e-03
3.671860999999999876e+03,1.795638428469104042e-02,1.559511677666525209e-02
3.673789999999999964e+03,1.844597205441544929e-02,1.444799337568647424e-02
3.675717999999999847e+03,1.894585499724854571e-02,8.832877439828079602e-03
3.677646999999999935e+03,1.945655166395354740e-02,1.015529509638191108e-02
3.679574999999999818e+03,1.997753256084777718e-02,1.231247047159911290e-02
3.681503999999999905e+03,2.050933812454047711e-02,1.459123804042450345e-02
3.683431999999999789e+03,2.105141697549584023e-02,1.360945434766192008e-02
3.685360999999999876e+03,2.160433143616913299e-02,7.945855564740478272e-03
3.687289000000000215e+03,2.216750824118918217e-02,-4.732225109527199436e-05
3.689217999999999847e+03,2.274153159884662045e-02,-4.874352785544378008e-03
3.691146000000000186e+03,2.332580635792425028e-02,5.673504195951029061e-04
3.693074999999999818e+03,2.392093861256583409e-02,4.999510189617417666e-03
3.695003000000000156e+03,2.452631132570814998e-02,6.325300925378307682e-03
3.696931999999999789e+03,2.514255247733387932e-02,5.702489471518745745e-03
3.698860000000000127e+03,2.576902314453022314e-02,5.052264634707315238e-03
