baseline wavenumber (cm-1),baseline absorbance (cm-1),baseline-subtracted absorbance (cm-1)
3199.379000000001,0.18601233195187208,1.3072876114961218e-14
3201.308,0.18409438993593952,-0.000349317662614812
3203.236,0.1821872878994064,-0.0015595713321365778
3205.165,0.180289047520656,-0.002012488337395091
3207.093,0.178401636907914,-0.0016448391721413103
3209.021,0.1765240694543806,-0.0016443565260473303
3210.95,0.17465537897739836,-0.001322214113353093
3212.878,0.17279750294765606,0.0006832410127202149
3214.807,0.17094851410785594,0.0010443091004732619
3216.736,0.1691093786406661,0.0011509064093693233
3218.664,0.1672810422992903,0.0013316131136278386
3220.593,0.1654616084692826,-1.5333325241284612e-05
3222.521,0.163652963551705,-0.0002869471764901377
3224.449,0.1618541617933289,0.0009367004324873918
3226.378,0.16006427786508934,0.0015737490226091222
3228.306,0.15828516753050792,0.0018149032265930565
3230.235,0.1565149852394505,0.0020683565173473806
3232.164,0.15475465632099272,0.003560313859943154
3234.092,0.15300508567478488,0.0030128057636060745
3236.021,0.15126445839351274,0.002809634399371125
3237.949,0.14953457917109605,0.003267402027731431
3239.877,0.14781454310788789,0.00377547003271661
3241.806,0.1461034657283804,0.002452078595889251
3243.734000000001,0.14440312108896336,0.0027615407931755875
3245.663,0.14271174534664155,0.003613434073150401
3247.592,0.14103022297692647,0.0034588096724215145
3249.52,0.13935941802587948,0.004305294397045634
3251.448,0.13769845623404464,0.006353904020681034
3253.377,0.13604648376609066,0.007267475599117085
3255.305,0.1344052133980469,0.008202691180948518
3257.234000000001,0.13277294256727856,0.006776233617902916
3259.1620000000007,0.13115136362302238,0.005841459585306907
3261.091,0.12953879442944327,0.006303720480088648
3263.02,0.12793607860846734,0.006908761177239819
3264.948,0.1263440393525812,0.006210797400678869
3266.876,0.12476184325590722,0.007950175343102162
3268.805,0.12318867733669593,0.008771799768327856
3270.733,0.12162617266381305,0.009721750109865188
3272.6620000000007,0.12007270838178385,0.01129290366713942
3274.591,0.11852909747235785,0.011364766876171384
3276.519,0.11699613248784856,0.0104596443240388
3278.448,0.11547222321560825,0.010625522665317563
3280.376,0.11395894965488652,0.01111382907755075
3282.304,0.11245551925337692,0.012475745277099173
3284.233,0.11096115988290124,0.012064716999742972
3286.161,0.1094774209051792,0.012573524207526665
3288.09,0.10800276317189272,0.01265831031441067
3290.019,0.10653795881120587,0.012250578538435253
3291.947,0.10508375952185743,0.013226156580437257
3293.875,0.10363940339171762,0.014854986580990381
3295.804,0.1022041489327954,0.015285995613853784
3297.732,0.10077948422644667,0.01555883579781292
3299.661,0.09936393140471368,0.015424302700208989
3301.5890000000004,0.0979589581221525,0.017924494824375303
3303.518,0.09656310693760516,0.019472979183895026
3305.447,0.09517710912565748,0.019162322795903228
3307.375,0.09380167553147344,0.01825887233065139
3309.303,0.09243608509649448,0.018765774804445634
3311.232,0.09107963718631497,0.018290624614958548
3313.16,0.08973373817512709,0.019430822625438937
3315.0890000000004,0.08839699190212967,0.019262969686872702
3317.0170000000007,0.08707078431473292,0.019299881812832043
3318.946,0.08575373967892119,0.02018278109334193
3320.875,0.08444654841571264,0.02048168366757852
3322.803,0.08314988051668948,0.02086659577968164
3324.731,0.08186305577687493,0.022562800889454712
3326.66,0.08058541441543099,0.02184155414819977
3328.588,0.07931828109940753,0.022862048426520065
3330.5170000000007,0.07806034137514928,0.022656832384074566
3332.445,0.07681289948291692,0.02356918886237791
3334.3740000000007,0.07557466139584433,0.023701089134834166
3336.302,0.07434691092739952,0.022331043181566437
3338.231,0.07312837447751264,0.021795308935001145
3340.159,0.07192031543285893,0.022566695585032548
3342.088,0.0707214806201577,0.023012978088019942
3344.016,0.0695331129992951,0.02525916436854092
3345.945,0.06835397982377599,0.025314270454198443
3347.873,0.06718530362670094,0.02582743265147558
3349.802,0.06602587208837107,0.026431420947108375
3351.73,0.06487688731509067,0.027608708560781015
3353.659,0.06373715741394292,0.02710485208772484
3355.587,0.06260786406445007,0.02612356219654255
3357.516,0.06148783580048445,0.026807928881613874
3359.4440000000004,0.06037823387478625,0.028232399906675365
3361.373,0.0592779072480063,0.02843360594313893
3363.302,0.05818743399382952,0.027746559739113115
3365.23,0.05710737175650137,0.026500229577775432
3367.158,0.05603715267838183,0.029694677908902234
3369.087,0.054976229325973236,0.03067069274013412
3371.015,0.05392570167164479,0.030082182691035797
3372.9440000000004,0.05288447995641832,0.02944140703438336
3374.8720000000008,0.05185364372588097,0.029399767777202213
3376.801,0.05083212364784373,0.029883028479923412
3378.7290000000007,0.04982097884109393,0.029890433268478622
3380.658,0.04881916040023882,0.030297386653233442
3382.586,0.04782770701728367,0.030838521629234172
3384.515,0.046845590213610684,0.029214250077504104
3386.443,0.045873828254446636,0.029441546252780837
3388.3720000000008,0.04491141308795932,0.029568016811969855
3390.3,0.043959342552582825,0.031136179533740815
3392.2290000000007,0.04301662902328118,0.031410238458776885
3394.157,0.042084249911695785,0.03143591586208384
3396.086,0.041161238019579834,0.030919526157110903
3398.014,0.04024855033178554,0.03145113631533869
3399.943,0.039345240076851695,0.030363139585535714
3401.871,0.038452243812848515,0.029647422617961043
3403.8,0.037568635195100335,0.029276103509034097
3405.728,0.036695330354888256,0.02964298966937151
3407.657,0.035831423374325766,0.028499922021408608
3409.585,0.03497780995790123,0.029009858090213614
3411.514,0.034133604614524415,0.027892070104974298
3413.442,0.03329968262189098,0.027831925585932726
3415.371,0.032475178915699836,0.02583878044950772
3417.2990000000004,0.03166094834685751,0.025369780451282686
3419.228,0.03085614627785205,0.02575003991440505
3421.156,0.030061607132797263,0.025034925769254812
3423.085,0.029276506700973925,0.02232412000477746
3425.013,0.028501658979713795,0.02048904151558606
3426.942,0.02773626018507613,0.019007902354093
3428.87,0.026981103887607102,0.020062260107136746
3430.7990000000004,0.02623540673015157,0.019431731650521696
3432.7270000000008,0.025499941856470087,0.018162748934998696
3434.656,0.024773946336200225,0.01693938632325609
3436.5840000000007,0.0240581728863134,0.015568836109946638
3438.513,0.02335187900322921,0.011761332358339652
3440.441,0.022655796977129942,0.00942142934451162
3442.37,0.021969204731227883,0.008968326856763735
3444.298,0.021292814128923254,0.009784715437436864
3446.2270000000008,0.020625923520206868,0.00911126439043719
3448.155,0.019969224341689795,0.010451780409144185
3450.0840000000007,0.019322035370159085,0.01175701041979349
3452.012,0.018685027615433114,0.013756092368393924
3453.941,0.01805754028108808,0.012776382694753341
3455.869,0.017440223950149658,0.012392486046818085
3457.798,0.0168324382529903,0.010415110518868564
3459.726,0.016234813345846533,0.010226826197264893
3461.655,0.0156467292858693,0.011273820597886841
3463.583,0.015068795802513081,0.012878742861188506
3465.512,0.014500413379721522,0.012764824667382602
3467.44,0.013942171320156405,0.013910350665085724
3469.369,0.013393490534550523,0.012308520988748795
3471.297,0.012854939898776507,0.011580014109107806
3473.226,0.012325960750352749,0.011122942514582013
3475.1540000000005,0.011807101538369835,0.01110101531192842
3477.083,0.011297824027131751,0.011035644081631936
3479.011,0.010798656238939941,0.01215393650340335
3480.94,0.010309080364887535,0.01295080035885654
3482.868,0.009829604000486823,0.01467155843760093
3484.797,0.009359729763616542,0.015068148534169934
3486.725,0.008899944823006933,0.01805952146628864
3488.6540000000005,0.008449772223322327,0.018533448235588112
3490.582000000001,0.008009678706500267,0.019063504352228255
3492.511,0.007579207744001337,0.01937520446665264
3494.4390000000008,0.007158805650973931,0.02105103969421962
3496.368,0.006748036325660678,0.022846121159429744
3498.296,0.006347325656420821,0.024035773504602176
3500.225,0.005956257968289691,0.024559258053139743
3502.153,0.005575238722840936,0.027795831731015408
3504.082000000001,0.005203872671895482,0.02891065275012039
3506.01,0.004842544850237829,0.028827221651329005
3507.9390000000008,0.004490880436478051,0.030390854123311772
3509.867,0.004149244038611499,0.03620454146629104
3511.796,0.003817281262033845,0.03757107414077643
3513.724,0.003495336287958395,0.036141780865584616
3515.653,0.003183075148566417,0.034887783033986874
3517.581,0.002880821598278516,0.0353249804840019
3519.51,0.0025882620960722136,0.03604359881568353
3521.438,0.002305699969578967,0.03895276561214556
3523.367,0.002032842104554789,0.042330343986620944
3525.295,0.0017699714018526433,0.0429945085334551
3527.224,0.0015168151740141411,0.04053210830723519
3529.152,0.0012736358950995452,0.04386484585967643
3531.081,0.001040181304446719,0.0448094093151834
3533.009,0.0008166934493232247,0.04369205010672639
3534.938,0.0006029404958560747,0.041924604232739915
3536.866,0.0003991440645236821,0.04272276031230837
3538.795,0.00020509274824220824,0.04229718158714646
3540.723,2.0987740697364646e-05,0.042858320861344446
3542.652,-0.00015336193839843304,0.04075833515178173
3544.58,-0.00031777552215217497,0.0419027345841152
3546.509,-0.00047242356406584923,0.044264498768756155
3548.437,-0.0006171457240249367,0.044036229924975245
3550.366,-0.0007520921287564875,0.042823758963892455
3552.294000000001,-0.0008771228649244732,0.046425490397523195
3554.223,-0.000992367632470348,0.0507078230049558
3556.151,-0.0010977069448507848,0.05328662840446885
3558.08,-0.0011932500752109831,0.055685820579608025
3560.008,-0.0012788979638003186,0.06281483246294095
3561.937,-0.0013547394569748403,0.07175856034042782
3563.865,-0.001420695921773074,0.07777417818195698
3565.794000000001,-0.0014768357777654726,0.076492503421554
3567.722,-0.0015231008187726047,0.07335773136562396
3569.651,-0.0015595390375757745,0.0716131122711754
3571.579,-0.0015861126547953575,0.06949220787363708
3573.508,-0.0016028492364164038,0.06558344157443341
3575.436,-0.0016097314298413323,0.06021531113266154
3577.365,-0.0016067663742802554,0.05390889919546682
3579.293,-0.001593957143914082,0.05167482240217747
3581.222,-0.0015712904511673287,0.051635982657778134
3583.15,-0.0015387897970136064,0.052618340994830204
3585.079,-0.0014964214670811769,0.05267755964559129
3587.007,-0.0014442293891328006,0.05836882253580211
3588.936,-0.0013821594220182474,0.06873078976670643
3590.864,-0.0013102759202823222,0.0746954977943346
3592.793,-0.001228504315982093,0.08440802518932711
3594.7209999999995,-0.001136929390455066,0.10318585287170468
3596.65,-0.0010354561489656078,0.12008326773291378
3598.578,-0.0009241897996474789,0.1256012341744579
3600.507,-0.0008030149209794503,0.11138979345125333
3602.435,-0.0006720571478702198,0.08242885488364315
3604.364,-0.0005311806320165147,0.05921358233018692
3606.292,-0.0003805314351161826,0.04725357297964261
3608.221,-0.00021995328207324857,0.04205711086824526
3610.149,-4.9612661385367574e-05,0.041974711215919
3612.078,0.00013066712883968992,0.03788358537292913
3614.006,0.0003206991733186726,0.03887368069123198
3615.935,0.0005206806007294064,0.03482906164125987
3617.863,0.0007304040689994906,0.031546458358979956
3619.792,0.0009500871335959004,0.03553480117126617
3621.72,0.0011795020256570865,0.03680948008290463
3623.649,0.0014188867274356198,0.03193651608263215
3625.577,0.0016679930432843546,0.028988026364377584
3627.506,0.0019270793822521173,0.024295502241117983
3629.434,0.0021958771218919537,0.03144861898646756
3631.363,0.0024746650980418394,0.03245963187961909
3633.291,0.0027631542614727773,0.029095230454993404
3635.22,0.0030616438748083397,0.028001228863491434
3637.148,0.00336982446203038,0.026718621914195273
3639.077,0.003688015712548065,0.027809507788917553
3641.005,0.004015887723561207,0.026707856337896407
3642.934,0.004353780611264568,0.02571192241107445
3644.862,0.004701344046068812,0.023936581760056752
3646.791,0.005058938570957849,0.022453949329577894
3648.719,0.0054261934295531935,0.02461676623889919
3650.648,0.0058034895916279075,0.027962304404126836
3652.576,0.006190435874010802,0.02564571089643297
3654.505,0.0065874336732711924,0.01838375807847248
3656.433,0.006994071379441635,0.021701976331060635
3658.362,0.007410770815887702,0.02095777259864784
3660.29,0.007837099945852799,0.01838800871683821
3662.219,0.008273501019480989,0.01824120634936577
3664.147,0.008719521573237188,0.017181115240671563
3666.076,0.0091756242840475,0.0145456938196622
3668.004,0.009641336261594802,0.01244397658587304
3669.933,0.010117140609590793,0.01569757686741302
3671.861,0.010602544010929194,0.018726779753348577
3673.79,0.01109804999611086,0.00972576482244758
3675.718,0.011603144821240365,0.015051560525974892
3677.647,0.012118352443604152,0.016660076748754138
3679.575,0.012643138692524758,0.012863785395214045
3681.504,0.013178047952074223,0.011378203943205323
3683.432,0.013722525624785929,0.008560401697563337
3685.361,0.01427713652151752,0.005816363933349722
3687.289,0.014841305618020328,0.001033049986953083
3689.218,0.015415618151941146,0.0037282209261950694
3691.146,0.015999478672231504,0.009846068684485454
3693.075,0.016593492843337998,0.008631919064071347
3695.003,0.01719704478741946,0.005248118459320713
3696.932,0.017810760595708075,0.0012158238579460523
3698.86,0.018434003963577084,0.0005925804900770437
