baseline wavenumber (cm-1),baseline absorbance (cm-1),baseline-subtracted absorbance (cm-1)
3199.379,0.226611448941,1.06581410364e-14
3201.308,0.224628445068,0.00183482465984
3203.236,0.222656314903,0.00375837720562
3205.165,0.220693012668,0.00527923867798
3207.093,0.218740573926,0.00618568594661
3209.021,0.216797978344,0.00580179798921
3210.95,0.21486422601,0.00479223586161
3212.878,0.212941321852,0.00549545734712
3214.807,0.211027271155,0.00681853858828
3216.736,0.209123073831,0.00718293022283
3218.664,0.207229709361,0.00887499462988
3220.593,0.205345213674,0.00922038358579
3222.521,0.203471540628,0.0109584586729
3224.449,0.201607710741,0.0115044022105
3226.378,0.199752764956,0.015163709497
3228.306,0.197908626493,0.0167681051769
3230.235,0.196073382345,0.017112470734
3232.164,0.19424799157,0.0145749622292
3234.092,0.192433392795,0.0106448206671
3236.021,0.190627703657,0.0100775455221
3237.949,0.188832796306,0.0120807425215
3239.877,0.187047732114,0.0137696999124
3241.806,0.185271592877,0.0162227805062
3243.734,0.183506220109,0.0211415047804
3245.663,0.18174978251,0.0186916098152
3247.592,0.180003198284,0.0116798939089
3249.52,0.178267365204,0.00926705850463
3251.448,0.176541375284,0.0096391657103
3253.377,0.174824340959,0.0121722341443
3255.305,0.173118042462,0.0164999766893
3257.234,0.171420709775,0.0179372967957
3259.162,0.169734102702,0.0224522396482
3261.091,0.168056471651,0.0244244817282
3263.02,0.166388693973,0.020310474266
3264.948,0.164731626589,0.0177063408396
3266.876,0.163084402364,0.0195772318015
3268.805,0.161446174588,0.0229265101123
3270.733,0.159818641786,0.0239421047017
3272.662,0.158200115647,0.0199483431492
3274.591,0.156591442881,0.0194629360945
3276.519,0.154993449768,0.0198052501693
3278.448,0.153404478639,0.0180535489003
3280.376,0.151826176949,0.0184551538677
3282.304,0.150257718419,0.0241541079595
3284.233,0.148698297192,0.0251281513997
3286.161,0.147149530086,0.0228221620931
3288.09,0.145609810495,0.0184602251515
3290.019,0.144079944278,0.0203888472228
3291.947,0.14256071686,0.0282077880677
3293.875,0.141051332601,0.0269468501066
3295.804,0.139551016285,0.019002838471
3297.732,0.13806132345,0.0209000241416
3299.661,0.136580708772,0.0226416998393
3301.589,0.135110707361,0.0232523317111
3303.518,0.133649794319,0.0242676586758
3305.447,0.13219873465,0.0246143638328
3307.375,0.130758272928,0.0281995798716
3309.303,0.129327654364,0.0275018696451
3311.232,0.127906144597,0.0260443691375
3313.16,0.126495217457,0.0325580431844
3315.089,0.125093409327,0.0363621718566
3317.017,0.123702173611,0.0326020830462
3318.946,0.122320067119,0.0298145522983
3320.875,0.120947813999,0.032004586924
3322.803,0.119586117971,0.0340662899412
3324.731,0.118234265103,0.0321117193805
3326.66,0.116891561884,0.0311611395905
3328.588,0.11555940044,0.0293357557775
3330.517,0.114236398859,0.028742562489
3332.445,0.112923928838,0.0310021213475
3334.374,0.111620628894,0.0319164508574
3336.302,0.110327850297,0.0360550391979
3338.231,0.10904425199,0.035615005716
3340.159,0.107771164817,0.0302217757019
3342.088,0.106507268147,0.0325400513468
3344.016,0.105253872398,0.0393536623754
3345.945,0.104009677365,0.0376416122132
3347.873,0.10277597304,0.0364764907892
3349.802,0.101551479644,0.0398715999669
3351.73,0.100337466743,0.0379881780467
3353.659,0.0991326749846,0.0347759012368
3355.587,0.0979383535065,0.03766659512
3357.516,0.0967532633857,0.0434676075167
3359.444,0.0955786333314,0.0426218978771
3361.373,0.0944132448477,0.0365261554458
3363.302,0.0932577097367,0.0382653209476
3365.23,0.0921126193708,0.0396711228533
3367.158,0.090977372164,0.0357773632801
3369.087,0.0898513869548,0.034554148797
3371.015,0.0887358311718,0.0393364411424
3372.944,0.0876295475997,0.0417637563773
3374.872,0.0865336832406,0.0433782479819
3376.801,0.0854471013057,0.0446315315314
3378.729,0.0843709283704,0.0418036714759
3380.658,0.0833040480726,0.0406087219001
3382.586,0.0822475665611,0.0423393489348
3384.515,0.0812003879005,0.0429238170341
3386.443,0.0801635978128,0.0388672961552
3388.372,0.0791361207894,0.0379272048554
3390.3,0.0781190221255,0.0454886524394
3392.229,0.0771112467393,0.0501551263648
3394.157,0.0761138394991,0.0466791988737
3396.086,0.0751257657501,0.0464161368151
3398.014,0.0741480499337,0.0477901621303
3399.943,0.0731796778219,0.050746022884
3401.871,0.0722216534293,0.0543139585089
3403.8,0.0712729829547,0.0554775587382
3405.728,0.0703346499859,0.058796195055
3407.657,0.0694056811485,0.05694156146
3409.585,0.0684870396035,0.0508223893474
3411.514,0.0675777724032,0.0484818487613
3413.442,0.066678822282,0.052163352877
3415.371,0.0657892567189,0.0544431469995
3417.299,0.0649099980215,0.0545857033834
3419.228,0.0640401340956,0.0551095828262
3421.156,0.063180566822,0.055080074822
3423.085,0.0623304045333,0.0555692250187
3425.013,0.0614905286834,0.0571804016304
3426.942,0.0606600680319,0.057255987046
3428.87,0.0598398836059,0.056815599724
3430.799,0.0590291245915,0.0574393873257
3432.727,0.0582286315893,0.0597457865278
3434.656,0.0574375742121,0.0562864769517
3436.584,0.0566567726336,0.0589611067261
3438.513,0.0558854168937,0.0621920976097
3440.441,0.055124306739,0.0621735194999
3442.37,0.0543726526362,0.0612899600709
3444.298,0.0536312339053,0.0560046086892
3446.227,0.0528992814397,0.0582131110954
3448.155,0.0521775541326,0.0638177628451
3450.084,0.0514653033042,0.0698284689751
3452.012,0.0507632674209,0.0740176090731
3453.941,0.0500707182297,0.0692799492757
3455.869,0.0493883737701,0.0618215234829
3457.798,0.0487155262161,0.0637238391295
3459.726,0.0480528731804,0.0686026101495
3461.655,0.0473997272635,0.070226958974
3463.583,0.0467567656516,0.0686220698835
3465.512,0.0461233213719,0.0720845489014
3467.44,0.0455000511838,0.0795817269668
3469.369,0.0448863085413,0.0834721872999
3471.297,0.0442827297769,0.083434471593
3473.226,0.0436886887716,0.0836856734287
3475.154,0.043104801431,0.08624796295
3477.083,0.0425304620629,0.0859084140117
3479.011,0.0419662661462,0.0902543251728
3480.94,0.0414116284152,0.0952452528317
3482.868,0.0408671239222,0.0953749254242
3484.797,0.0403321878285,0.0974867120107
3486.725,0.0398073747593,0.0976071775578
3488.654,0.0392921403027,0.0969956908289
3490.582,0.0387870186573,0.0961200198553
3492.511,0.038291485838,0.0911828973311
3494.439,0.0378060556163,0.0888204209336
3496.368,0.0373302244341,0.0900336533879
3498.296,0.0368644856363,0.0872156849096
3500.225,0.0364083560913,0.0893702837354
3502.153,0.0359623087173,0.0993599111751
3504.082,0.0355258808095,0.103375356347
3506.01,0.0350995248592,0.102712035915
3507.939,0.0346827985886,0.105227734717
3509.867,0.0342761340621,0.112772513453
3511.796,0.0338791094287,0.119493365584
3513.724,0.033492136326,0.121883553896
3515.653,0.0331148133297,0.125944737939
3517.581,0.0327475316509,0.133615787004
3519.51,0.0323899102918,0.141867446247
3521.438,0.0320423200367,0.147354478733
3523.367,0.0317044003148,0.153741535241
3525.295,0.0313765014835,0.158888054328
3527.224,0.0310582833988,0.161062706327
3529.152,0.0307500759913,0.154566202753
3531.081,0.0304515595438,0.144827674398
3533.009,0.03016304356,0.139020223372
3534.938,0.0298842287497,0.132419189158
3536.866,0.0296154041898,0.128770001556
3538.795,0.0293562910166,0.124678097744
3540.723,0.0291071578805,0.121258397442
3542.652,0.0288677463445,0.120856863986
3544.58,0.0286383046322,0.119282992635
3546.509,0.0284185947334,0.116305666118
3548.437,0.0282088444448,0.111215213709
3550.366,0.0280088361832,0.101541383989
3552.294,0.0278187773185,0.0983645595097
3554.223,0.0276384706941,0.107693884097
3556.151,0.0274681032531,0.124677000542
3558.08,0.0273074982658,0.143618621815
3560.008,0.0271568222487,0.16444623919
3561.937,0.0270159188986,0.184410655506
3563.865,0.0268849343052,0.20130266617
3565.794,0.0267637325924,0.214447213099
3567.722,0.0266524394228,0.230295558061
3569.651,0.0265509393471,0.252913658402
3571.579,0.0264593376013,0.27291264814
3573.508,0.0263775391628,0.265830470902
3575.436,0.0263056288408,0.223665364379
3577.365,0.0262435320395,0.17404653576
3579.293,0.0261913131412,0.142622554196
3581.222,0.0261489179771,0.115112702209
3583.15,0.0261163905027,0.0952207172068
3585.079,0.0260936969757,0.08789001729
3587.007,0.0260808609251,0.0863525632729
3588.936,0.0260778690353,0.0845155467751
3590.864,0.0260847244085,0.0934948520226
3592.793,0.0261014341559,0.10682056207
3594.721,0.0261279809528,0.119715662019
3596.65,0.0261643923375,0.134689385534
3598.578,0.0262106305582,0.140298770434
3600.507,0.02626674358,0.125744859132
3602.435,0.0263326732245,0.0897971932744
3604.364,0.0264084878835,0.0632091817887
3606.292,0.0264941089518,0.0554350166511
3608.221,0.026589625248,0.0536060831465
3610.149,0.0266949377401,0.0501251503287
3612.078,0.0268101556734,0.0471770533851
3614.006,0.0269351595893,0.0462922815234
3615.935,0.0270700791598,0.0441988800909
3617.863,0.0272147744995,0.0378939135553
3619.792,0.0273693957072,0.0338412005044
3621.72,0.0275337824707,0.036024266037
3623.649,0.0277081053156,0.0364108574299
3625.577,0.0278921835029,0.0405795436237
3627.506,0.028086207985,0.0470878326944
3629.434,0.028289977596,0.0393716565691
3631.363,0.0285037037153,0.0285037052454
3633.291,0.0287271647501,0.0294639305179
3635.22,0.0289605925066,0.0305305656677
3637.148,0.0292037449652,0.0294332858588
3639.077,0.0294568743589,0.0241434611412
3641.005,0.0297197182413,0.0208366527659
3642.934,0.0299925492721,0.0227910531603
3644.862,0.0302750845783,0.0278475127516
3646.791,0.0305676172464,0.0320118892889
3648.719,0.0308698439764,0.0301345594625
3650.648,0.0311820782816,0.0216647798998
3652.576,0.0315039964353,0.0148282185643
3654.505,0.0318359323777,0.0142275330588
3656.433,0.0321775419553,0.0139638573597
3658.362,0.0325291795349,0.0107894756689
3660.29,0.0328904805363,0.0110341717319
3662.219,0.033261819753,0.0105751132169
3664.147,0.0336428121782,0.00933020802172
3666.076,0.0340338530321,0.010813075045
3668.004,0.0344345368811,0.0164779535082
3669.933,0.0348452793722,0.0192163687721
3671.861,0.0352656546449,0.00826758083419
3673.79,0.0356960987733,0.00961913153359
3675.718,0.0361361654698,0.0193003341458
3677.647,0.0365863112353,0.0147535923084
3679.575,0.0370460693556,0.00422184145727
3681.504,0.0375159167583,-0.000231720211146
3683.432,0.0379953663024,0.00621271365845
3685.361,0.0384849153423,0.00990643155086
3687.289,0.0389840563102,0.0109768020109
3689.218,0.0394933069872,0.0132427662636
3691.146,0.0400121393789,0.00961811154719
3693.075,0.0405410916932,0.000455972680926
3695.003,0.0410796155087,-0.00336835528638
3696.932,0.0416282694601,-0.00300906207906
3698.86,0.0421864846994,-0.00356727731835
