baseline wavenumber (cm-1),baseline absorbance (cm-1),baseline-subtracted absorbance (cm-1)
3199.379,0.192275459565,2.05946371068e-14
3201.308,0.19033521777,0.000431889240801
3203.236,0.188405827514,0.000566353935686
3205.165,0.186485287356,0.0012144400505
3207.093,0.184575588524,0.000997557488788
3209.021,0.182675732851,0.00134223038392
3210.95,0.180784742594,0.00231269222778
3212.878,0.178904578345,0.00380947771115
3214.807,0.177033289726,0.00518275836237
3216.736,0.175171854479,0.00537717746316
3218.664,0.173321229919,0.00427190630842
3220.593,0.171479496309,0.00439769667341
3222.521,0.169648563172,0.00473285850948
3224.449,0.167827473195,0.00578090032888
3226.378,0.166015289487,0.00694934321049
3228.306,0.164213890933,0.00800006027975
3230.235,0.162421408862,0.00761598542018
3232.164,0.160638780164,0.00788362145725
3234.092,0.158866921299,0.0084228669167
3236.021,0.157103994238,0.00858972212457
3237.949,0.155351826796,0.00908271573526
3239.877,0.153609502514,0.00958368962981
3241.806,0.151876125355,0.00991146114127
3243.734,0.150153492496,0.0113667423539
3245.663,0.148439816974,0.011759386213
3247.592,0.146735994825,0.0125049361878
3249.52,0.145042901655,0.0129521357396
3251.448,0.143359651644,0.013781957359
3253.377,0.141685379396,0.0137483243852
3255.305,0.140021820809,0.0141610966442
3257.234,0.138367250199,0.0144271860914
3259.162,0.136723383035,0.0146692918794
3261.091,0.135088514062,0.0150191255551
3263.02,0.133463498461,0.01555131946
3264.948,0.131849170986,0.0148321738101
3266.876,0.13024468667,0.0164289695819
3268.805,0.128649220972,0.0177263294584
3270.733,0.127064428079,0.0178331744928
3272.662,0.125488664018,0.0173899967776
3274.591,0.123922753329,0.0182489108915
3276.519,0.122367500125,0.0188539299442
3278.448,0.120821291073,0.0194303340054
3280.376,0.119285729293,0.0197675313484
3282.304,0.117760010672,0.0202528501649
3284.233,0.116243351522,0.0209384475968
3286.161,0.114737324325,0.0215438666999
3288.09,0.113240366813,0.0220968806886
3290.019,0.111753262672,0.0227137814319
3291.947,0.110276775164,0.0229737315811
3293.875,0.108810130814,0.0233597860095
3295.804,0.107352576576,0.0233240153022
3297.732,0.10590562365,0.0239965221524
3299.661,0.104467771049,0.024067910785
3301.589,0.103040509547,0.0249919221296
3303.518,0.101622358583,0.0258568474
3305.447,0.100214060992,0.0269977933454
3307.375,0.0988163391782,0.0275476784356
3309.303,0.097428460524,0.0282383459344
3311.232,0.0960497128342,0.0282736952877
3313.16,0.0946815256038,0.0284742722574
3315.089,0.0933224795512,0.0281061917286
3317.017,0.0919739837446,0.0292100520421
3318.946,0.0906346393292,0.0305535902088
3320.875,0.0893051482865,0.0303254521189
3322.803,0.0879861921682,0.0299609665653
3324.731,0.0866770792091,0.0312889514053
3326.66,0.0853771380681,0.031532067216
3328.588,0.0840877165328,0.0308270105239
3330.517,0.082807477029,0.0307226131366
3332.445,0.0815377469175,0.0307635741141
3334.374,0.0802772090509,0.0303333312441
3336.302,0.0790271703632,0.0313383849594
3338.231,0.0777863341338,0.0330629005066
3340.159,0.0765559868698,0.0341611446043
3342.088,0.0753348522776,0.0338700823698
3344.016,0.0741241964375,0.0339085847186
3345.945,0.0729227634824,0.0338267297726
3347.873,0.0717317990661,0.0334247676495
3349.802,0.0705500677482,0.0336643028396
3351.73,0.0693787947557,0.0348048216559
3353.659,0.068216765075,0.0354524178425
3355.587,0.0670651835062,0.0364649066595
3357.516,0.0659228554627,0.0364920463336
3359.444,0.0647909653177,0.0361299125742
3361.373,0.0636683389114,0.0367017596418
3363.302,0.0625555658777,0.036704237016
3365.23,0.0614532154211,0.0359599389788
3367.158,0.0603607081237,0.036617694057
3369.087,0.0592774849918,0.0369568758106
3371.015,0.0582046691182,0.0373087159381
3372.944,0.0571411476234,0.037516013207
3374.872,0.0560880231736,0.0378624905609
3376.801,0.055044203316,0.0376446902326
3378.729,0.05401077029,0.0370320758692
3380.658,0.0529866520696,0.0379345753016
3382.586,0.0519729104674,0.0382891989895
3384.515,0.0509684938842,0.037098536241
3386.443,0.0499744437057,0.0378479509263
3388.372,0.0489897287597,0.0383280177979
3390.3,0.0480153700051,0.0389941358312
3392.229,0.0470503566962,0.0388338258718
3394.157,0.0460956893654,0.0386411527399
3396.086,0.0451503776937,0.0392502653482
3398.014,0.0442154017866,0.0399661177492
3399.943,0.0432897917522,0.0398310581814
3401.871,0.0423745072689,0.0401752935279
3403.8,0.0414685988716,0.0404129975497
3405.728,0.0405730058121,0.0408360946282
3407.657,0.039686799052,0.040641361988
3409.585,0.0388108974163,0.0402664772953
3411.514,0.0379443922934,0.0396400069517
3413.442,0.0370881820815,0.0395676507276
3415.371,0.0362413785958,0.0399660723024
3417.299,0.0354048598077,0.0401099231657
3419.228,0.0345777579591,0.03913406143
3421.156,0.0337609305948,0.0393218260977
3423.085,0.0329535303834,0.0387529769207
3425.013,0.0321563944429,0.0382448077658
3426.942,0.0313686958687,0.0375332402465
3428.87,0.030591251352,0.0367817129312
3430.799,0.029823254415,0.035919039567
3432.727,0.0290655013221,0.036033401313
3434.656,0.0283172060222,0.035501204546
3436.584,0.0275791443531,0.0358992228797
3438.513,0.0268505506905,0.0354095317867
3440.441,0.0261321804451,0.0345133077775
3442.37,0.0254232884196,0.0340773056951
3444.298,0.0247246095981,0.0343866646034
3446.227,0.0240354192098,0.0336817821601
3448.155,0.023356431812,0.0347860858367
3450.084,0.022686943061,0.0357557772857
3452.012,0.022027647087,0.0353233000019
3453.941,0.0213778599731,0.0344864022762
3455.869,0.0207382554229,0.034424951399
3457.798,0.0201081699462,0.034765318556
3459.726,0.0194882568198,0.0353743978248
3461.655,0.0188778729802,0.0349345964403
3463.583,0.0182776512776,0.0348935236717
3465.512,0.0176869690753,0.0346880920836
3467.44,0.0171064387965,0.0349750597707
3469.369,0.0165354582313,0.0345888165992
3471.297,0.0159746193763,0.0346030698668
3473.226,0.0154233404483,0.0351844040124
3475.154,0.0148821930171,0.0357224061302
3477.083,0.0143506157263,0.0360788943038
3479.011,0.0138291597188,0.0367600623403
3480.94,0.0133172840652,0.037725562094
3482.868,0.0128155194816,0.0390632811056
3484.797,0.0123233454651,0.0387551475802
3486.725,0.0118412723053,0.0390163498377
3488.654,0.011368799926,0.0383739833269
3490.582,0.01090641819,0.0392099584089
3492.511,0.0104536474479,0.0396574869618
3494.439,0.0100109571356,0.040122893427
3496.368,0.00957788803076,0.0397640424928
3498.296,0.00915488914226,0.0402632278634
3500.225,0.00874152167458,0.0408932724821
3502.153,0.00833821420987,0.0426878569441
3504.082,0.00794454837938,0.0440314074464
3506.01,0.00756093233846,0.0441529140305
3507.939,0.00718696814515,0.0451161002829
3509.867,0.00682304352802,0.0494008328961
3511.796,0.0064687809719,0.0496991787681
3513.724,0.00612454777856,0.0464825676195
3515.653,0.00578998685962,0.0446779658908
3517.581,0.00546544509007,0.0455483942893
3519.51,0.00515058580832,0.0461620583519
3521.438,0.00484573546256,0.0462257679973
3523.367,0.00455057781799,0.0466013058753
3525.295,0.00426541889603,0.0467365381879
3527.224,0.00398996288865,0.047194072898
3529.152,0.00372449539047,0.0479351816907
3531.081,0.00346874102027,0.0472672623347
3533.009,0.00322296494588,0.04821723915
3534.938,0.00298691221287,0.0481967740945
3536.866,0.00276082756227,0.048535391072
3538.795,0.00254447646644,0.0471644072967
3540.723,0.00233808323964,0.0456995906263
3542.652,0.002141433781,0.0439028102953
3544.58,0.00195473197798,0.0455727021452
3546.509,0.00177778415652,0.0477252563132
3548.437,0.00161077377729,0.0481683553204
3550.366,0.00145352759302,0.0472533990862
3552.294,0.00130620863759,0.0488636382905
3554.223,0.0011686640905,0.0511515288221
3556.151,0.00104103655886,0.0543730963831
3558.08,0.000923193648951,0.0576795882061
3560.008,0.000815257541099,0.0640316705361
3561.937,0.00071711626838,0.0692405967392
3563.865,0.000628871584315,0.0711786352305
3565.794,0.000550431948781,0.0708761424554
3567.722,0.000481878688507,0.0692486727898
3569.651,0.000423140690156,0.0639324195251
3571.579,0.000374278853673,0.0599315155127
3573.508,0.000335242492511,0.0565372674676
3575.436,0.00030607207982,0.0534578197214
3577.365,0.00028673735584,0.0499051267666
3579.293,0.000277258366939,0.0475905685709
3581.222,0.000277625280141,0.0479781236539
3583.15,0.000287837715032,0.048892633383
3585.079,0.000307906265423,0.0491273352248
3587.007,0.000337810124101,0.0549753233071
3588.936,0.000377580311675,0.0650819849361
3590.864,0.000427175594144,0.0727195358059
3592.793,0.000486647418906,0.0840384102452
3594.721,0.000555934125167,0.102890979973
3596.65,0.000635107587108,0.122614001241
3598.578,0.000724085717163,0.128553890099
3600.507,0.00082296081629,0.113111127392
3602.435,0.000931630370129,0.083745450779
3604.364,0.00105020710644,0.0594855446235
3606.292,0.00117856808408,0.0462171123521
3608.221,0.00131684645757,0.0407838734697
3610.149,0.001464898859,0.0373224080537
3612.078,0.00162287886968,0.0324730182436
3614.006,0.00179062269489,0.0305299196969
3615.935,0.00196830434276,0.0292394960347
3617.863,0.00215573959176,0.0276925864025
3619.792,0.00235312287682,0.0276940568254
3621.72,0.00256024954961,0.0282162934014
3623.649,0.00277733447185,0.0256437181597
3625.577,0.00300415256844,0.0243426007691
3627.506,0.00324093912786,0.0238367151672
3629.434,0.00348744864823,0.027561688138
3631.363,0.00374393684484,0.0253393790145
3633.291,0.00401013778901,0.0226998643079
3635.22,0.00428632762279,0.0219462857832
3637.148,0.00457221999075,0.0220864086526
3639.077,0.00486811146173,0.0221752938643
3641.005,0.00517369525348,0.0215436459082
3642.934,0.00548928836164,0.0209044349906
3644.862,0.00581456357718,0.0185147856924
3646.791,0.00614985832252,0.014988395679
3648.719,0.00649482496185,0.015870101298
3650.648,0.00684982134438,0.0192713081726
3652.576,0.0072144794075,0.0194686127851
3654.505,0.00758917742721,0.0169757208743
3656.433,0.00797352691412,0.0180787551856
3658.362,0.00836792657102,0.0181809655797
3660.29,0.00877196748172,0.0166757154707
3662.219,0.0091860687758,0.0160375979608
3664.147,0.0096098011103,0.015883314148
3666.076,0.0100436040416,0.0138205883118
3668.004,0.0104870277998,0.013572872948
3669.933,0.0109405323683,0.0173442233457
3671.861,0.0114036475504,0.0155834916123
3673.79,0.011876853756,0.0114977181319
3675.718,0.0123596603619,0.0153005758861
3677.647,0.0128525682047,0.0124609147058
3679.575,0.0133550662344,0.00953932112848
3681.504,0.0138676757144,0.00792620140873
3683.432,0.0143898651678,0.00680675187281
3685.361,0.014922176285,0.00407586663106
3687.289,0.0154640571622,0.000969157348149
3689.218,0.0160160699166,0.00206738573447
3691.146,0.0165776422176,0.00499047129324
3693.075,0.0171493566092,0.00349019046567
3695.003,0.017730620334,0.00209079575602
3696.932,0.0183220363628,0.00125299683777
3698.86,0.0189229915114,0.000652041689168
