baseline wavenumber (cm-1),baseline absorbance (cm-1),baseline-subtracted absorbance (cm-1)
3199.3790000000004,0.17183382189424634,2.2315482794965646e-14
3201.308,0.16997541732103016,-0.0006787429047763194
3203.236,0.16812782186280373,0.00021767495312674523
3205.165,0.16628911892677323,0.0015636052216144725
3207.093,0.1644612148923379,0.0012192662559487033
3209.0209999999997,0.1626431540171147,0.0017045665934179999
3210.95,0.16083400098284883,0.0015638560878071806
3212.8779999999997,0.1590356315314132,0.0010120789709622269
3214.8070000000002,0.157246180134333,0.001622919228853159
3216.736,0.15546658210985242,0.0034090875555675693
3218.664,0.1536977523467904,0.003228053778752904
3220.593,0.15193785595949905,0.002077306276425328
3222.5209999999997,0.15018871762022812,0.0014944927305249323
3224.449,0.14844942244016224,0.0025060005862199697
3226.3779999999997,0.14671907595463907,0.0036869687234161175
3228.3059999999996,0.14499947219836784,0.002956355154305812
3230.235,0.1432888273500197,0.0028237775221121586
3232.164,0.14158803587428537,0.0043916467295759265
3234.092,0.1398979718063842,0.005085551897244689
3236.0209999999997,0.13821688196782844,0.0058184965826617585
3237.949,0.13654650932372192,0.005472291848824251
3239.877,0.13488597983882045,0.006272111741084552
3241.8059999999996,0.13323443990202932,0.005543180637746281
3243.7340000000004,0.13159360184091895,0.006147427169492459
3245.663,0.12996176354131705,0.006493002454841856
3247.592,0.12833977861431833,0.005619283348685777
3249.52,0.126728480241578,0.0065462594733719515
3251.448,0.12512702502804984,0.008280131547306557
3253.377,0.12353459000281575,0.008141039229975111
3255.305,0.12195282621307868,0.00884743659901066
3257.2340000000004,0.12038009282503026,0.01008558998099418
3259.1620000000003,0.11881802045908074,0.01028053407442786
3261.091,0.117264988708218,0.008767256313514604
3263.02,0.11572181032995488,0.012369466330309997
3264.948,0.11418927765238251,0.015021477426966579
3266.8759999999997,0.1126665881340152,0.0145917763661364
3268.805,0.11115295965752026,0.012881913485105922
3270.7329999999997,0.10964996156294404,0.013834522415626771
3272.6620000000003,0.10815603472363478,0.01415438678652392
3274.591,0.10667196125692513,0.011715989819593653
3276.5190000000002,0.10519850285072252,0.010192379591408285
3278.448,0.10373413102119855,0.013918451612987326
3280.3759999999997,0.10228036403878704,0.015564273583774324
3282.304,0.10083644021558413,0.013650772965452918
3284.2329999999997,0.09940161828782479,0.011719578517997542
3286.1609999999996,0.09797738588841298,0.014254191994938936
3288.09,0.09656226559783931,0.015496968203838613
3290.0190000000002,0.09515699867987237,0.015186880830892813
3291.947,0.09376230596883062,0.016158547159644154
3293.875,0.09237745641699746,0.017658629704502604
3295.804,0.09100173940079515,0.017937611655507335
3297.732,0.08963658127275309,0.019888537498094938
3299.6609999999996,0.08828056589373645,0.01910162353313105
3301.5890000000004,0.0869350991894855,0.017108871294695183
3303.518,0.08559878544765454,0.017015891596720234
3305.447,0.0842723250784232,0.02054694106935806
3307.375,0.08295639806254584,0.02011820013820209
3309.303,0.0816503142058771,0.01945263737604952
3311.232,0.08035340373841038,0.018881813081563337
3313.16,0.07906701130553273,0.019119180951618797
3315.0890000000004,0.07778980247525524,0.020507478430435655
3317.0170000000003,0.07652310146616514,0.022363535549906777
3318.946,0.07526559427306978,0.021094003422270358
3320.875,0.07401794045257759,0.02134655969904481
3322.803,0.0727807791318611,0.024195163453805457
3324.7309999999998,0.07155346097035675,0.02462029825333678
3326.66,0.07033535705162919,0.02396728117742164
3328.5879999999997,0.0691277303139124,0.023460261195235477
3330.5170000000003,0.06792932803237406,0.022626620618186932
3332.445,0.06674139271844837,0.022132406937874327
3334.3740000000003,0.06556269207409215,0.024307872971900013
3336.302,0.06439444818395756,0.028225434561418017
3338.2309999999998,0.06323544917678703,0.027918649680991225
3340.159,0.06208689671043999,0.02683319830623848
3342.0879999999997,0.06094759934045513,0.02524683106488196
3344.0159999999996,0.05981873829790274,0.02545357545929927
3345.945,0.058699142565100004,0.027018384979628607
3347.873,0.057589972946335166,0.027346194040423155
3349.802,0.056490078850718106,0.02710700999998439
3351.73,0.05540060065574792,0.02697506900967206
3353.659,0.054320408197312986,0.025292196674818856
3355.587,0.05325062142613035,0.023874568101818705
3357.5159999999996,0.052190130604884644,0.025366323453540507
3359.4440000000004,0.05114003525749311,0.027969537167453873
3361.373,0.050099246073429526,0.028823477064142455
3363.302,0.04906831026197267,0.02904040296960525
3365.23,0.048047754602947634,0.029277980765494704
3367.158,0.047037042103138305,0.028805523347180118
3369.087,0.04603565619344607,0.027323941501894045
3371.015,0.045044635117427845,0.027898506497855635
3372.9440000000004,0.044062950844917737,0.027222048649674424
3374.8720000000003,0.04309162119268706,0.026412523151798983
3376.801,0.04212963855736618,0.027602394193063484
3378.7290000000003,0.0411780003289266,0.030093909101984173
3380.658,0.040235719330787845,0.027398112671638164
3382.586,0.03930377252613937,0.027446859233690835
3384.515,0.038381193165182736,0.029396275752233636
3386.4429999999998,0.03746893778432536,0.030531163297247477
3388.3720000000003,0.036566060060554406,0.031075201437474553
3390.3,0.035673496103488134,0.030550702825047182
3392.2290000000003,0.034790320016902854,0.028573624186068958
3394.157,0.03391744748362768,0.02896873466536659
3396.086,0.03305397303422808,0.030612002908357583
3398.014,0.03220079192474046,0.031174372332815392
3399.9429999999998,0.03135701911252653,0.031309057911631966
3401.8709999999996,0.03052352942683001,0.03248501196607406
3403.8,0.029699458251801758,0.03046090766349191
3405.728,0.028885659989892787,0.03024296631153245
3407.657,0.02808129045205021,0.03289778566237417
3409.585,0.027287183613935895,0.03369457116216845
3411.514,0.02650251571327189,0.03107506439387464
3413.442,0.025728100298948675,0.02881688100096036
3415.3709999999996,0.024963134035470347,0.025785375011330436
3417.2990000000004,0.024208410044941786,0.02643588390027196
3419.228,0.02346314541864558,0.029894329563665167
3421.156,0.02272811285190457,0.030098330087547587
3423.085,0.022002549862797594,0.028038084929479734
3425.013,0.02128720871984413,0.027817562330393397
3426.942,0.02058134736792283,0.026027163700509393
3428.87,0.01988569764876047,0.024467986774569184
3430.7990000000004,0.019199537934021293,0.02367835552600095
3432.7270000000003,0.018523579638653587,0.022001993999272218
3434.656,0.017857121561100087,0.0197227834222215
3436.5840000000003,0.01720085468951993,0.018974875624843734
3438.513,0.016554098249152105,0.016378429800984418
3440.441,0.01591752280136305,0.015739507422027232
3442.37,0.015290467998177348,0.017522783796020625
3444.298,0.014673583974179394,0.018872408141457908
3446.2270000000003,0.01406623080817937,0.019279771415615266
3448.155,0.013469038207972517,0.018955150612405547
3450.0840000000003,0.012881386679154616,0.018804856118783353
3452.012,0.012303885502738865,0.017714511343516037
3453.941,0.01173593561110664,0.014750721621279883
3455.869,0.011178125858481991,0.014992449295667398
3457.798,0.010629877604035443,0.018337018180862974
3459.7259999999997,0.010091759275198342,0.019961106387391347
3461.655,0.00956321265793747,0.01821774357374145
3463.583,0.009044785752891471,0.016390016632633675
3465.512,0.008535940772816275,0.015746784386387214
3467.44,0.008037205291561378,0.014900275755643733
3469.369,0.007548061948668305,0.01490791702636457
3471.297,0.00706901789120451,0.018546164561034417
3473.2259999999997,0.006599576185500666,0.018263508824102104
3475.1540000000005,0.00614022355182442,0.01727896173069865
3477.083,0.005690483483306252,0.01861013311428794
3479.011,0.005250822273421107,0.0198753780702563
3480.94,0.0048207838420850635,0.019782218280627928
3482.868,0.00440081405599102,0.022517259329230876
3484.797,0.0039904772618371,0.024389235666496034
3486.725,0.003590198899537711,0.023867751166165296
3488.6540000000005,0.0031995637425694667,0.02228143292173862
3490.5820000000003,0.002818976804057627,0.023199116797478825
3492.511,0.002448043284271506,0.025616952167057783
3494.4390000000003,0.0020871477695543206,0.026329257769715897
3496.368,0.001735915886953876,0.025704496525863263
3498.296,0.0013947117960242394,0.02821127223308728
3500.225,0.0010631815506130238,0.02866637470128225
3502.153,0.0007416688834709362,0.030266468183141826
3504.0820000000003,0.000429840275241844,0.029502435070962618
3506.01,0.00012801903189085806,0.02990382166355038
3507.9390000000003,-0.00016410793915255795,0.030794958035180064
3509.867,-0.0004462377587124422,0.034373762270993924
3511.796,-0.000718663092570182,0.03626217870967324
3513.724,-0.0009811014883354119,0.03533513969716989
3515.653,-0.0012338251850110282,0.03347177120745115
3517.5809999999997,-0.0014765721569887091,0.03263921240767104
3519.51,-0.0017095942164786493,0.032155161789510056
3521.438,-0.0019326497646652285,0.033396765806310846
3523.367,-0.002145970186973045,0.03570626534516569
3525.295,-0.0023493343113685228,0.03636677088268159
3527.224,-0.0025429530964906633,0.03683199585399599
3529.152,-0.002726625797095039,0.039082786718958984
3531.0809999999997,-0.0029005429450315035,0.03851789865108629
3533.009,-0.0030645242218447777,0.03884750208498039
3534.938,-0.0032187397325991185,0.03873238574493104
3536.866,-0.003363029585621291,0.038019604941933904
3538.795,-0.003497543459186403,0.03780311305384931
3540.723,-0.0036221418884245793,0.03650074291945665
3542.652,-0.003736954124804015,0.036132739023217064
3544.58,-0.003841861130247537,0.04066330053184464
3546.509,-0.003936971729444849,0.0412986921378144
3548.437,-0.0040221873110972695,0.03916779531675785
3550.366,-0.0040975962731089055,0.038360458903251404
3552.2940000000003,-0.004163120430970224,0.04064876684762847
3554.223,-0.004218827755799737,0.04388086151704507
3556.151,-0.004264660489869954,0.04583688327365654
3558.08,-0.00430066617751379,0.04963559996908362
3560.008,-0.004326807487796458,0.05246902926076724
3561.937,-0.004343111538254618,0.053881522535929705
3563.865,-0.0043495614247461845,0.057543789666937684
3565.7940000000003,-0.0043461638380186685,0.05843385210244806
3567.722,-0.004332922300719133,0.052879925232084735
3569.651,-0.004309823076805941,0.04939397348618635
3571.579,-0.004276890115715304,0.046883531175050175
3573.508,-0.004234089254619988,0.042741872535727865
3575.4359999999997,-0.0041814648697382495,0.04256491781626609
3577.365,-0.004118962371457258,0.04039329776011591
3579.2929999999997,-0.004046646562784417,0.03926093949718251
3581.222,-0.003964442427321302,0.039624707261042114
3583.15,-0.00387243519485736,0.04110456902685983
3585.079,-0.0037705294222085683,0.044454598966330694
3587.007,-0.0036588307659535246,0.05034709519534808
3588.9359999999997,-0.0035372233561226096,0.05704687664632785
3590.864,-0.0034058332760764642,0.06473247837867424
3592.7929999999997,-0.003264524229059873,0.07207489519843213
3594.7209999999995,-0.0031134427252261787,0.08641921448303475
3596.65,-0.0029524320410203586,0.1014445982191261
3598.578,-0.0027816591133955626,0.10875982549366447
3600.507,-0.002600946792007619,0.09565305434280108
3602.435,-0.0024104824405917213,0.07119548193518388
3604.364,-0.0022100684820181016,0.05372224881154403
3606.292,-0.0019999127068111022,0.044187216861263756
3608.2209999999995,-0.001779797111055359,0.03461771280902359
3610.1490000000003,-0.001549949912057258,0.0330179575942568
3612.078,-0.0013101326791122858,0.03462894395981586
3614.006,-0.0010605940563266358,0.03247841473761642
3615.935,-0.0008010751861995402,0.02892884229425574
3617.863,-0.0005318451396192359,0.027690088341883468
3619.792,-0.00025262463231001675,0.025938614726315923
3621.72,3.629683806138928e-05,0.0250518462934457
3623.6490000000003,0.00033521898255628457,0.02254242177353394
3625.577,0.0006438318767152396,0.022571370791838297
3627.506,0.000962455658395811,0.017172791486049777
3629.434,0.0012907599763458677,0.01623041661316188
3631.363,0.0016290853952121154,0.026620586089676268
3633.2909999999997,0.0019770811369532737,0.02919475753685652
3635.22,0.0023351081930051976,0.028496136121156368
3637.1479999999997,0.002702795358533905,0.02536998337390317
3639.077,0.003080524051767952,0.02549569145414532
3641.005,0.003467902641091314,0.028558479649417157
3642.934,0.00386533297151459,0.025415320015445886
3644.862,0.004272402984621948,0.020569505435473034
3646.7909999999997,0.004689534952227348,0.014986397525282025
3648.719,0.005116296389132913,0.009127512364531298
3650.6479999999997,0.005553129993920436,0.012262800461957435
3652.5759999999996,0.00599958285461355,0.02128152499942465
3654.505,0.006456118096590302,0.02172486845956051
3656.433,0.006922262381074518,0.02099237423067113
3658.362,0.0073984992602298405,0.022981769616753855
3660.29,0.00788433496850871,0.021712046311184008
3662.219,0.00838027348484971,0.01717744409323585
3664.147,0.008885800616916129,0.015269359597376853
3666.0759999999996,0.009401440770442804,0.01459891301506211
3668.0040000000004,0.009926659326300324,0.013998793013738131
3669.933,0.010462001117009123,0.007546641357467798
3671.861,0.011006911096657745,0.009632834177778715
3673.79,0.011561954524559326,0.008688828857630171
3675.718,0.012126555927991944,0.0022912142125114388
3677.647,0.012701300993075648,0.00886364391746719
3679.575,0.013285593820306474,0.011370728832074017
3681.5040000000004,0.013880040522572301,0.011885804013968715
3683.4320000000002,0.014484024773587123,0.012000004337905823
3685.361,0.015098173113038627,0.007669693054958959
3687.289,0.015721848787851656,0.001275725254400395
3689.218,0.016355698764485282,-0.0007090799430963801
3691.1459999999997,0.01699906586308586,0.003510284182400847
3693.075,0.017652617476905164,0.004221839209640865
3695.0029999999997,0.018315675999296843,0.004223290947028835
3696.9320000000002,0.018988929250301823,0.004368646813581734
3698.86,0.019671679196484604,0.0036858968673989523
