baseline wavenumber (cm-1),baseline absorbance (cm-1),baseline-subtracted absorbance (cm-1)
3199.379,0.194782169211,1.24344978758e-14
3201.308,0.193320139175,0.00052298222407
3203.236,0.191865899712,-0.000573066395344
3205.165,0.190417942274,-0.000855120076663
3207.093,0.188977768114,6.44839836272e-05
3209.021,0.187544624781,-0.00069634822228
3210.95,0.186117774416,-0.000745794228487
3212.878,0.184698696387,-0.000216739447601
3214.807,0.18328591862,-0.000387404518997
3216.736,0.181880178976,-3.39240484635e-05
3218.664,0.180482200724,-0.000216356187411
3220.593,0.179090533678,0.000628459549279
3222.521,0.177706620729,0.00136393420911
3224.449,0.176329738607,0.00230464934388
3226.378,0.174959178634,0.00205183925725
3228.306,0.173596361815,0.0016689773133
3230.235,0.17223987444,0.00077690510073
3232.164,0.170890425189,0.00133791808439
3234.092,0.169548708147,0.00236021735566
3236.021,0.168213331493,0.00451031148641
3237.949,0.166885679755,0.00348427880178
3239.877,0.165565058844,0.00226471978727
3241.806,0.164250789263,0.00246102717283
3243.734,0.162944233655,0.002955897751
3245.663,0.161644036672,0.00252254576004
3247.592,0.160350877812,0.00337195651509
3249.52,0.159065421982,0.00327208939004
3251.448,0.157786996979,0.00335269775459
3253.377,0.156514945192,0.00474503661334
3255.305,0.155250585492,0.00517143007445
3257.234,0.153992606303,0.00470293599962
3259.162,0.152742311906,0.00522594848027
3261.091,0.151498405315,0.00513608371789
3263.02,0.150261536847,0.0053186713811
3264.948,0.149032342227,0.00582715438657
3266.876,0.147810178435,0.00700534769413
3268.805,0.14659441704,0.00806746509856
3270.733,0.145386318551,0.00834409689397
3272.662,0.144184629754,0.00694697845367
3274.591,0.14298997908,0.00641768290292
3276.519,0.141802980369,0.00648823564264
3278.448,0.140622402293,0.00783711453726
3280.376,0.139449468884,0.00831005805434
3282.304,0.138283566303,0.00894022829925
3284.233,0.1371240953,0.00870932226816
3286.161,0.135972258022,0.00884528973943
3288.09,0.134826859616,0.00971827330583
3290.019,0.133688499335,0.0112073866454
3291.947,0.132557761834,0.0101431377923
3293.875,0.131434055161,0.00929069971623
3295.804,0.130316801952,0.0105156048005
3297.732,0.129207160582,0.0117334034535
3299.661,0.12810397997,0.0123150031489
3301.589,0.127008403903,0.0132038673999
3303.518,0.12591929589,0.0130102502539
3305.447,0.124837226,0.0141797557043
3307.375,0.12376274971,0.0144445685959
3309.303,0.122695304248,0.0140852476574
3311.232,0.121634341431,0.0142758981326
3313.16,0.120580961272,0.0140086475428
3315.089,0.119534071052,0.0137960613646
3317.017,0.118494756196,0.0142349516786
3318.946,0.117461938574,0.0134771092372
3320.875,0.116436159076,0.0152377517696
3322.803,0.115417943997,0.0157439886824
3324.731,0.114406759746,0.0158226954241
3326.66,0.113402087321,0.0156401647765
3328.588,0.112404968372,0.0177446323553
3330.517,0.111414368545,0.0177072325869
3332.445,0.110431314899,0.0164508239866
3334.374,0.10945478767,0.0156447776791
3336.302,0.108485799327,0.0170074787483
3338.231,0.107523344696,0.0184571465606
3340.159,0.106568421656,0.0186580010676
3342.088,0.105620039622,0.0182048870937
3344.016,0.104679181885,0.0185200498954
3345.945,0.103744872449,0.018400583934
3347.873,0.102818080014,0.0182897740238
3349.802,0.101897843177,0.0196173695997
3351.73,0.100985116045,0.0206736325653
3353.659,0.100078951805,0.0208914312937
3355.587,0.099180289976,0.0213635288858
3357.516,0.0982881983346,0.0212801833494
3359.444,0.0974036018079,0.0217963375432
3361.373,0.0965255827645,0.0218591337017
3363.302,0.0956546018444,0.0223318532249
3365.23,0.094791105095,0.0212222376726
3367.158,0.0939346391737,0.0221322768275
3369.087,0.0930847653263,0.0234971612885
3371.015,0.0922423647076,0.0242996346859
3372.944,0.0914065634582,0.0231229018203
3374.872,0.0905782281423,0.0235201242281
3376.801,0.0897564994908,0.0241523249305
3378.729,0.0889422294776,0.0231855376304
3380.658,0.0881345734242,0.0233740690503
3382.586,0.0873343687137,0.0252012625408
3384.515,0.0865407852582,0.025485900277
3386.443,0.0857546458504,0.0264211350047
3388.372,0.0849751349929,0.0273477195507
3390.3,0.0842030608878,0.0274819689312
3392.229,0.0834376226284,0.0262697462183
3394.157,0.082679613826,0.0269231355928
3396.086,0.0819282481645,0.0266945154057
3398.014,0.0811843046648,0.0264043944154
3399.943,0.0804470116013,0.0288843337944
3401.871,0.0797171334043,0.0298931971324
3403.8,0.0789939129388,0.0304390194376
3405.728,0.0782781000445,0.0311361322409
3407.657,0.077568952177,0.0296811236342
3409.585,0.0768672045855,0.0312637971329
3411.514,0.0761721293159,0.0323950393892
3413.442,0.0754844470271,0.0317984802953
3415.371,0.0748034443555,0.0313847695331
3417.299,0.0741298273694,0.0319487130127
3419.228,0.0734628972958,0.0309750891592
3421.156,0.0728033456124,0.0299753868247
3423.085,0.0721504881368,0.0316158112668
3425.013,0.0715050017561,0.0338523216039
3426.942,0.0708662168785,0.0343303867806
3428.87,0.0702347958005,0.0356572490797
3430.799,0.0696100835209,0.0367201499775
3432.727,0.0689927277456,0.0380875310232
3434.656,0.068382088064,0.037689376608
3436.584,0.0677787975914,0.0363468468036
3438.513,0.0671822305078,0.0352452434637
3440.441,0.0665930053379,0.0360704941062
3442.37,0.0660105108523,0.0358832524147
3444.298,0.0654353509851,0.036934001082
3446.227,0.0648669290974,0.0359371748144
3448.155,0.064305834533,0.0345221246301
3450.084,0.0637514852433,0.0387608972494
3452.012,0.0632044559815,0.0413720122283
3453.941,0.0626641792899,0.0407316561493
3455.869,0.0621312153308,0.0399768408705
3457.798,0.0616050112372,0.0407072297413
3459.726,0.0610861125808,0.0429900018435
3461.655,0.0605739810851,0.0410610133554
3463.583,0.0600691477315,0.0400688286154
3465.512,0.0595710888338,0.0425824540754
3467.44,0.0590803207828,0.0421190120788
3469.369,0.0585963344831,0.0407678624238
3471.297,0.0581196317349,0.0413608089808
3473.226,0.0576497180332,0.0416270433132
3475.154,0.0571870805877,0.0418536552862
3477.083,0.0567312394839,0.0421396793476
3479.011,0.0562826673411,0.0427767686237
3480.94,0.0558408988354,0.0410361859721
3482.868,0.0554063919953,0.0392741902346
3484.797,0.0549786960875,0.0423699342572
3486.725,0.0545582545501,0.0425442421647
3488.654,0.0541446312404,0.0396494655958
3490.582,0.0537382550057,0.0423311880349
3492.511,0.0533387042939,0.0444749012858
3494.439,0.0529463933619,0.0450046831568
3496.368,0.0525609152481,0.0432982781209
3498.296,0.0521826696189,0.0434672848944
3500.225,0.0518112641031,0.0440661239491
3502.153,0.0514470837765,0.0380641868189
3504.082,0.0510897508587,0.0336782669317
3506.01,0.0507396358348,0.0385669445756
3507.939,0.050396375515,0.0410900290134
3509.867,0.0500603257939,0.0419800057537
3511.796,0.049731138072,0.0455266199387
3513.724,0.0494091536536,0.0455064432331
3515.653,0.0490940385298,0.0435613743885
3517.581,0.048786119414,0.0422449126289
3519.51,0.0484850768882,0.0406976785955
3521.438,0.0481912230751,0.0392888133142
3523.367,0.0479042531473,0.0360404552324
3525.295,0.0476244646369,0.0367311403363
3527.224,0.0473515673071,0.0340898559215
3529.152,0.0470858440995,0.0323571964343
3531.081,0.0468270193676,0.0368210145958
3533.009,0.0465753614627,0.0406499493632
3534.938,0.0463306093288,0.0407567251501
3536.866,0.0460930167266,0.039812674166
3538.795,0.0458623371907,0.0405558372761
3540.723,0.0456388098912,0.0410467253358
3542.652,0.0454222029533,0.0375329168284
3544.58,0.0452127409565,0.0304508595691
3546.509,0.0450102066166,0.0278023881474
3548.437,0.0448148099225,0.0328148271947
3550.366,0.0446263481805,0.0365851144698
3552.294,0.0444450167892,0.0329304001723
3554.223,0.0442706276452,0.0367108744269
3556.151,0.0441033615566,0.0457131753888
3558.08,0.0439430450106,0.0529906454776
3560.008,0.0437898442246,0.0564876246928
3561.937,0.0436436002767,0.0581455435624
3563.865,0.0435044647934,0.0590650287879
3565.794,0.0433722934435,0.0486503488289
3567.722,0.0432472232629,0.0320342889174
3569.651,0.0431291245109,0.0411001284963
3571.579,0.0430181196331,0.0495362117123
3573.508,0.0429140934791,0.0475625061368
3575.436,0.042817153904,0.0432249971119
3577.365,0.042727200348,0.042194966841
3579.293,0.0426443260755,0.0420812374542
3581.222,0.0425684451175,0.0421864320684
3583.15,0.0424996361478,0.0420834023643
3585.079,0.0424378277878,0.0414709966335
3587.007,0.0423830841208,0.0318370715449
3588.936,0.0423353483587,0.0393203678042
3590.864,0.0422946699944,0.0636696482104
3592.793,0.0422610068304,0.0764891195216
3594.721,0.0422343937688,0.0892393755631
3596.65,0.0422148032027,0.106652072366
3598.578,0.0422022554438,0.114398371262
3600.507,0.0421967374758,0.0993528430357
3602.435,0.0421982550196,0.072762323167
3604.364,0.0422068096495,0.0551342395772
3606.292,0.042222392496,0.0395470404364
3608.221,0.0422450197239,0.0238835560367
3610.149,0.0422746678732,0.0211049945144
3612.078,0.0423113676991,0.0159540725112
3614.006,0.042355081151,0.00500668979815
3615.935,0.0424058535749,0.00966176999733
3617.863,0.0424636323295,0.0062713317865
3619.792,0.0425284773514,-0.0014954236771
3621.72,0.0426003214088,0.0135161245631
3623.649,0.0426792390286,0.0253719082472
3625.577,0.0427651483887,0.0254290293127
3627.506,0.0428581386066,0.0158561037871
3629.434,0.0429581132693,-0.00942531229895
3631.363,0.0430651760852,0.00743922096324
3633.291,0.0431792160507,0.0156300430214
3635.22,0.0433003514645,0.0144111617267
3637.148,0.0434284567327,0.0183490627255
3639.077,0.0435636647445,0.0186454730297
3641.005,0.0437058353154,0.0220841171763
3642.934,0.0438551159252,0.0202690122462
3644.862,0.0440113517988,0.0188730108819
3646.791,0.0441747050066,-1.9746955457e-05
3648.719,0.0443450061829,-0.0295128015938
3650.648,0.0445224319887,-0.0334630971055
3652.576,0.0447067984677,-0.00197102569909
3654.505,0.0448982968715,0.013109385328
3656.433,0.0450967286532,0.00404357256987
3658.362,0.045302299655,0.00944802886012
3660.29,0.0455147967394,0.0183470247505
3662.219,0.0457344403392,0.0201889398286
3664.147,0.0459610027263,0.0189712726199
3666.076,0.0461947189241,0.0163818503674
3668.004,0.0464353466139,0.00749419952983
3669.933,0.0466831354096,-0.0172380732445
3671.861,0.0469378284022,-0.00833073247579
3673.79,0.0471996897959,-0.00325194896908
3675.718,0.0474684480912,-0.0453740379022
3677.647,0.0477443820829,-0.0275462622002
3679.575,0.0480272056809,-0.00414516787636
3681.504,0.0483172122706,0.00998663893735
3683.432,0.0486141011712,0.0155100270002
3685.361,0.0489181803589,0.0131762298301
3687.289,0.0492291345623,0.00424857695087
3689.218,0.049547286348,-0.0251330540625
3691.146,0.0498723058541,-0.0200158416875
3693.075,0.0502045302378,0.000298855994926
3695.003,0.0505436150466,0.00989406816379
3696.932,0.0508899120282,0.00943809767561
3698.86,0.0512430621397,0.0090849475641
