baseline wavenumber (cm-1),baseline absorbance (cm-1),baseline-subtracted absorbance (cm-1)
3199.379,0.125790862226,1.4155343564e-14
3201.308,0.124120182232,0.00093733318302
3203.236,0.122460214036,0.00175023779864
3205.165,0.120809235679,0.00203206625137
3207.093,0.119168958907,0.00281062261514
3209.021,0.117538525294,0.00339839980434
3210.95,0.115917096839,0.00400143141301
3212.878,0.11430635465,0.00513051990762
3214.807,0.112704627832,0.00482786989326
3216.736,0.111112754387,0.00519918334649
3218.664,0.109531551886,0.00515044548539
3220.593,0.107959380079,0.00541411633307
3222.521,0.106397869002,0.00589253835718
3224.449,0.104846201084,0.00578849011201
3226.378,0.103303579178,0.00576283141575
3228.306,0.101771602684,0.0075363928688
3230.235,0.100248682415,0.00766186039344
3232.164,0.0987356155182,0.00877211722212
3234.092,0.0972331787126,0.00988690619593
3236.021,0.0957398134534,0.0102532119181
3237.949,0.0942570680716,0.0107261523873
3239.877,0.092784165849,0.0113090313612
3241.806,0.0913203504915,0.0114704106527
3243.734,0.0898671396927,0.0135129270212
3245.663,0.0884230259724,0.0131092695901
3247.592,0.0869887656248,0.0130571254093
3249.52,0.0855650945143,0.0137348145123
3251.448,0.0841512665631,0.0143864874044
3253.377,0.0827465561172,0.0147131628761
3255.305,0.0813524195897,0.0159880231476
3257.234,0.079967410781,0.0159927630793
3259.162,0.0785929656774,0.0149483261451
3261.091,0.0772276585058,0.0141489714345
3263.02,0.0758722047069,0.0154174950808
3264.948,0.0745272992916,0.0163878932688
3266.876,0.0731922370355,0.0177785503899
3268.805,0.0718663331384,0.0185141379017
3270.733,0.0705509623061,0.0198143464981
3272.662,0.0692447600461,0.0200192650221
3274.591,0.0679484111588,0.0197463224913
3276.519,0.0666625800148,0.0189721111809
3278.448,0.0653859327647,0.01970241253
3280.376,0.0641197930445,0.0205227825139
3282.304,0.0628634964836,0.0210133861607
3284.233,0.0616163991352,0.0200796485753
3286.161,0.0603797939981,0.0206223287149
3288.09,0.0591523982869,0.0214120412158
3290.019,0.0579348559482,0.0217264197012
3291.947,0.0567277904995,0.0218129959152
3293.875,0.0555305682099,0.0220853218133
3295.804,0.0543425757731,0.0227583036366
3297.732,0.0531650449073,0.0234142535866
3299.661,0.0519967541076,0.0235257365423
3301.589,0.0508389146657,0.0233907426678
3303.518,0.0496903255032,0.0232884473665
3305.447,0.0485515897133,0.0259656446949
3307.375,0.0474232899597,0.0279101781491
3309.303,0.0463048333653,0.0270540062182
3311.232,0.0451956474772,0.0259939815534
3313.16,0.0440968823066,0.026713185418
3315.089,0.0430073980557,0.0253292035819
3317.017,0.0419283243089,0.0252711096343
3318.946,0.0408585416951,0.0257707921773
3320.875,0.039798612454,0.0268130321432
3322.803,0.0387490783955,0.0268401260925
3324.731,0.0377093874963,0.0275331071969
3326.66,0.0366790081569,0.0276022007787
3328.588,0.0356590086815,0.0289249395647
3330.517,0.0346483309793,0.0285831458225
3332.445,0.0336480229277,0.0286813008366
3334.374,0.0326570468626,0.0286867315665
3336.302,0.0316764302348,0.0289299581206
3338.231,0.030705155807,0.0286629832813
3340.159,0.0297442306029,0.0286434172289
3342.088,0.0287926578123,0.0283137810839
3344.016,0.027851424032,0.029787714753
3345.945,0.0269195528785,0.0301206775874
3347.873,0.0259980105221,0.0315900820686
3349.802,0.0250858410058,0.0328019584484
3351.73,0.0241839900731,0.0332898803403
3353.659,0.023291522194,0.0325448267396
3355.587,0.0224093626851,0.0324975411863
3357.516,0.0215365964432,0.0326960933374
3359.444,0.0206741283581,0.0333872281566
3361.373,0.0198210637534,0.0332982125026
3363.302,0.0189778525213,0.0325731431322
3365.23,0.0181449241245,0.0316346169651
3367.158,0.017321838887,0.0336524863935
3369.087,0.0165081775567,0.0333562720542
3371.015,0.0157047837429,0.0325423607026
3372.944,0.0149108240498,0.0320328735142
3374.872,0.0141271216598,0.0327074078055
3376.801,0.0133528636038,0.0332122834699
3378.729,0.0125888526377,0.0339560781214
3380.658,0.0118342962189,0.0343325894579
3382.586,0.0110899766765,0.0354408026624
3384.515,0.0103551218949,0.0357420174966
3386.443,0.00963049377635,0.0353951809432
3388.372,0.00891534063191,0.0349787258798
3390.3,0.00821040393714,0.0368491331093
3392.229,0.00751495242989,0.0372888482372
3394.157,0.0068297071589,0.0371361272695
3396.086,0.00615395728884,0.0373494289438
3398.014,0.00548840344165,0.0392375644144
3399.943,0.00483235520877,0.0405319427797
3401.871,0.00418649278537,0.0408861848655
3403.8,0.00355014618967,0.0401346814662
3405.728,0.00292397519006,0.0419369365657
3407.657,0.00230733023155,0.0435098132032
3409.585,0.00170085065572,0.0440005543781
3411.514,0.0011039073344,0.0430130440454
3413.442,0.000517119182369,0.0441224239289
3415.371,-6.01225017718e-05,0.0432547045295
3417.299,-0.000627219230015,0.0429161103652
3419.228,-0.00118475927697,0.0446441750255
3421.156,-0.00173216458142,0.0465243408677
3423.085,-0.00227000299119,0.0464839926809
3425.013,-0.00279771687185,0.0470000821807
3426.942,-0.00331585364444,0.0475086162038
3428.87,-0.0038238761013,0.0490744573203
3430.799,-0.00432231123671,0.0503284772126
3432.727,-0.00481064226979,0.050395298087
3434.656,-0.005289375768,0.0514380667616
3436.584,-0.00575801537729,0.0547556905011
3438.513,-0.00621704723832,0.0540280246971
3440.441,-0.00666599542382,0.0530047197744
3442.37,-0.00710532564767,0.0533192142558
3444.298,-0.00753458240937,0.0538308524993
3446.227,-0.00795421099604,0.0527367845329
3448.155,-0.00836377633395,0.0532782613233
3450.084,-0.00876370328343,0.0554577293625
3452.012,-0.00915357719756,0.0561503425872
3453.941,-0.00953380250985,0.0548258271738
3455.869,-0.00990398500019,0.0548108888716
3457.798,-0.0102645086753,0.0544244197235
3459.726,-0.0106149997418,0.0560298385167
3461.655,-0.0109558217798,0.0559718937498
3463.583,-0.0112866214225,0.0570643430439
3465.512,-0.0116077418233,0.0595839876536
3467.44,-0.0119188500422,0.061374424691
3469.369,-0.0122202688058,0.0614822722425
3471.297,-0.0125116856009,0.0617873350501
3473.226,-0.0127934027273,0.0615929579684
3475.154,-0.0130651280987,0.0617206420985
3477.083,-0.0133271435879,0.0608753089573
3479.011,-0.0135791775355,0.0626678260748
3480.94,-0.0138214913875,0.0639714964416
3482.868,-0.0140538339113,0.0651550165657
3484.797,-0.0142764461261,0.0665703913399
3486.725,-0.0144890972261,0.0669098998138
3488.654,-0.0146920078037,0.0636654233501
3490.582,-0.01488496748,0.06293702449
3492.511,-0.0150681764204,0.0639026048041
3494.439,-0.0152414446728,0.0647536250024
3496.368,-0.0154049519761,0.0632811270494
3498.296,-0.0155585288047,0.062333420142
3500.225,-0.0157023344708,0.0637483265864
3502.153,-0.0158362198757,0.0654413952522
3504.082,-0.0159603239045,0.0637222768005
3506.01,-0.0160745178856,0.0650615794443
3507.939,-0.0161789202773,0.0692592801277
3509.867,-0.0162734228346,0.0716847237544
3511.796,-0.0163581235891,0.0705331968732
3513.724,-0.0164329347226,0.0696846278389
3515.653,-0.0164979338399,0.0691679025046
3517.581,-0.0165530535496,0.069168438165
3519.51,-0.0165983510298,0.0699789231515
3521.438,-0.0166337793157,0.0748698047882
3523.367,-0.0166593751586,0.0749798037445
3525.295,-0.0166751120207,0.0737294939069
3527.224,-0.0166810062265,0.0727225507529
3529.152,-0.0166770516648,0.0718022917336
3531.081,-0.0166632442334,0.0704986834329
3533.009,-0.0166395982479,0.0698842156542
3534.938,-0.0166060891794,0.0687716607957
3536.866,-0.0165627517701,0.0659187610696
3538.795,-0.0165095410643,0.064927513368
3540.723,-0.0164465122313,0.0670038760238
3542.652,-0.0163735998883,0.068091380137
3544.58,-0.0162908796315,0.0675133601733
3546.509,-0.0161982656513,0.0632647773262
3548.437,-0.0160958539707,0.0627489420127
3550.366,-0.0159835383534,0.0668340387071
3552.294,-0.0158614352489,0.0666128756613
3554.223,-0.0157294179944,0.066677462066
3556.151,-0.0155876234662,0.0740874718438
3558.08,-0.0154359045745,0.0812080667093
3560.008,-0.0152744186225,0.088499325122
3561.937,-0.0151029980936,0.0951928596119
3563.865,-0.0149218207178,0.102046959705
3565.794,-0.0147306985518,0.101467684299
3567.722,-0.0145298297522,0.0878022445909
3569.651,-0.0143190059489,0.0850856085973
3571.579,-0.0140984457255,0.0896416580979
3573.508,-0.0138679202851,0.0884387279269
3575.436,-0.0136276686379,0.0805754094648
3577.365,-0.0133774415603,0.0723200272269
3579.293,-0.0131174984893,0.0674249886339
3581.222,-0.0128475697745,0.0642550295946
3583.15,-0.0125679352798,0.0659823697284
3585.079,-0.0122783049278,0.0701959234459
3587.007,-0.0119789790093,0.068324273662
3588.936,-0.0116696470201,0.0647227148458
3590.864,-0.0113506296778,0.0786198099062
3592.793,-0.0110215960514,0.095232047886
3594.721,-0.0106828872853,0.11100776346
3596.65,-0.0103341520217,0.125146039215
3598.578,-0.00997575183181,0.133213293528
3600.507,-0.00960731493108,0.117394032812
3602.435,-0.00922922331738,0.087048287302
3604.364,-0.00884108477947,0.067367214366
3606.292,-0.00844330174197,0.0605921948987
3608.221,-0.00803546156687,0.0515135774064
3610.149,-0.00761798710559,0.04258806696
3612.078,-0.00719044529331,0.0406473340025
3614.006,-0.00675327940823,0.0353061956116
3615.935,-0.00630603595877,0.0366825648176
3617.863,-0.00584917864989,0.0390033280485
3619.792,-0.00538223356325,0.0318746524453
3621.72,-0.00490568483059,0.028525567576
3623.649,-0.00441903810675,0.0315004593137
3625.577,-0.0039227979503,0.0357034509373
3627.506,-0.00341644958928,0.0362158026672
3629.434,-0.00290051800904,0.0133243025031
3631.363,-0.00237446801084,0.0159668565684
3633.291,-0.00183884500681,0.0256926810525
3635.22,-0.00129309337142,0.0238097718309
3637.148,-0.000737778943598,0.0280158543505
3639.077,-0.000172325671024,0.0290990415307
3641.005,0.000402680180589,0.0291843005128
3642.934,0.000987835090346,0.0278759574903
3644.862,0.00158253236575,0.0327618525529
3646.791,0.00218738891269,0.0337909796307
3648.719,0.00280177761189,0.0186627932968
3650.648,0.00342633579601,0.00325869402305
3652.576,0.004060415919,0.00912329983962
3654.505,0.00470467574031,0.0201604309008
3656.433,0.00535844728708,0.0146139574435
3658.362,0.00602240874558,0.01029478523
3660.29,0.00669587171615,0.0150449551311
3662.219,0.00737953481183,0.0170395493891
3664.147,0.00807268920618,0.019471281278
3666.076,0.00877605393905,0.0231608206187
3668.004,0.0094888997572,0.0258870226122
3669.933,0.0102119661272,0.0130348245328
3671.861,0.0109445033692,0.00818134318899
3673.79,0.0116872713764,0.0215618947006
3675.718,0.0124395000421,0.00422723401223
3677.647,0.0132019696866,-0.00135748368636
3679.575,0.0139738897761,0.00576289380827
3681.504,0.0147560610577,0.00772220640415
3683.432,0.015547672571,0.00988859549733
3685.361,0.0163495454898,0.00972697326085
3687.289,0.0171608484269,0.0123665446794
3689.218,0.0179824229829,8.58070787987e-05
3691.146,0.0188134173438,-0.00316861799068
3693.075,0.0196546935369,-0.001779377657
3695.003,0.0205053793216,0.00353181869721
3696.932,0.0213663571519,0.00169272502739
3698.86,0.0222367343604,0.000822347818914
