wavenumber (/cm),baseline value (/cm),baseline-subtracted absorbance (/cm),
3.199378999999999905e+03,2.144816385322805274e-01,-1.379040735858705347e-03
3.201307999999999993e+03,2.123809865557753085e-01,-9.437076717158099370e-04
3.203235999999999876e+03,2.102919725412526475e-01,2.608931213371468161e-04
3.205164999999999964e+03,2.082124294617315741e-01,1.458347855563590922e-03
3.207092999999999847e+03,2.061445134012771518e-01,1.376157780366482619e-03
3.209021000000000186e+03,2.040871435828250924e-01,1.196541851320287453e-03
3.210949999999999818e+03,2.020392611123398297e-01,2.691255414497384368e-03
3.212878000000000156e+03,2.000029892479524563e-01,4.694979012433764254e-03
3.214806999999999789e+03,1.979762156744513391e-01,4.218720138750020610e-03
3.216735999999999876e+03,1.959599992858827022e-01,4.548137780730099333e-03
3.218664000000000215e+03,1.939553770876081273e-01,4.606282671817785168e-03
3.220592999999999847e+03,1.919602695960200833e-01,6.844289182914575775e-03
3.222521000000000186e+03,1.899767453518066418e-01,6.625296495964549948e-03
3.224449000000000069e+03,1.880037673496026684e-01,5.344307046435015085e-03
3.226378000000000156e+03,1.860403204670539878e-01,6.915405804046870220e-03
3.228306000000000040e+03,1.840884404189075951e-01,9.659563220029143693e-03
3.230235000000000127e+03,1.821461024333430601e-01,9.631972973510372071e-03
3.232164000000000215e+03,1.802143216327074526e-01,1.027167856945576663e-02
3.234092000000000098e+03,1.782940912506809639e-01,1.015986609289537546e-02
3.236021000000000186e+03,1.763834193470259493e-01,1.176016702717813667e-02
3.237949000000000069e+03,1.744842869190570411e-01,1.272106029614572531e-02
3.239876999999999953e+03,1.725957007331011539e-01,1.418368873419906251e-02
3.241806000000000040e+03,1.707166894384855027e-01,1.428972924138921519e-02
3.243733999999999924e+03,1.688492012065871961e-01,1.324793818490183073e-02
3.245663000000000011e+03,1.669912988089556904e-01,1.372077033084018183e-02
3.247592000000000098e+03,1.651439535962531124e-01,1.546243475914971244e-02
3.249519999999999982e+03,1.633081150304676044e-01,1.653834206040483146e-02
3.251447999999999865e+03,1.614828227066951172e-01,1.812068482388212720e-02
3.253376999999999953e+03,1.596671381030283499e-01,1.815248183025791606e-02
3.255304999999999836e+03,1.578629437333169960e-01,1.761855833885528355e-02
3.257233999999999924e+03,1.560683680266343742e-01,1.736921410214364858e-02
3.259161999999999807e+03,1.542852716109841538e-01,1.912921337840234326e-02
3.261090999999999894e+03,1.525118048012856775e-01,1.838175630252519843e-02
3.263019999999999982e+03,1.507488951765196816e-01,1.690980289282234539e-02
3.264947999999999865e+03,1.489974484269787069e-01,1.777693750246644999e-02
3.266876000000000204e+03,1.472565479194507532e-01,2.089785418304601627e-02
3.268804999999999836e+03,1.455252989037205680e-01,2.301538642934325418e-02
3.270733000000000175e+03,1.438054963502537476e-01,2.306431058394220468e-02
3.272661999999999807e+03,1.420953562315041552e-01,2.149875071279994110e-02
3.274590999999999894e+03,1.403957732976870432e-01,2.263167034933621924e-02
3.276518999999999778e+03,1.387076204103365740e-01,2.427494301835048107e-02
3.278447999999999865e+03,1.370291463735000548e-01,2.535238602314404677e-02
3.280376000000000204e+03,1.353620914402107189e-01,2.542235210573090542e-02
3.282304000000000087e+03,1.337055827489237458e-01,2.607218941321121086e-02
3.284233000000000175e+03,1.320587693211265901e-01,2.709325736440870713e-02
3.286161000000000058e+03,1.304233585839078557e-01,2.765770883750129361e-02
3.288090000000000146e+03,1.287976540530948455e-01,2.687185974453998316e-02
3.290018999999999778e+03,1.271825067072143156e-01,2.747341161887495442e-02
3.291947000000000116e+03,1.255787456361012744e-01,2.951803996988289214e-02
3.293875000000000000e+03,1.239855308070048068e-01,2.974892790117278363e-02
3.295804000000000087e+03,1.224020440701565349e-01,2.805181219184693653e-02
3.297731999999999971e+03,1.208299271951212006e-01,3.017937230957912220e-02
3.299661000000000058e+03,1.192675493552570742e-01,3.138038352657857022e-02
3.301588999999999942e+03,1.177165304342828733e-01,3.052919886926519499e-02
3.303518000000000029e+03,1.161752614913993398e-01,3.040464349192228966e-02
3.305447000000000116e+03,1.146445497334553920e-01,3.133038203648297326e-02
3.307375000000000000e+03,1.131251804785904369e-01,3.038790958509107742e-02
3.309302999999999884e+03,1.116163574657349500e-01,3.136858137991360707e-02
3.311231999999999971e+03,1.101173063168268129e-01,3.244966022517270510e-02
3.313159999999999854e+03,1.086295812580324593e-01,3.452871248501820922e-02
3.315088999999999942e+03,1.071516390061049151e-01,3.470421867104056535e-02
3.317016999999999825e+03,1.056850119013752476e-01,3.357153313046545851e-02
3.318945999999999913e+03,1.042281785464282962e-01,3.219454459114379219e-02
3.320875000000000000e+03,1.027819023764173778e-01,3.318089960478154410e-02
3.322802999999999884e+03,1.013469249378005088e-01,3.397097660874770497e-02
3.324731000000000222e+03,9.992249374118955529e-02,3.557432218926648293e-02
3.326659999999999854e+03,9.850787818021444764e-02,3.596599223320928740e-02
3.328588000000000193e+03,9.710454493766462747e-02,3.669308975353124946e-02
3.330516999999999825e+03,9.571103827367011263e-02,3.540692392182165360e-02
3.332445000000000164e+03,9.432880298518853124e-02,3.404984858662996050e-02
3.334373999999999796e+03,9.295640521817816193e-02,3.438616023214036144e-02
3.336302000000000135e+03,9.159526788375060846e-02,3.689912208895751444e-02
3.338231000000000222e+03,9.024397901372438469e-02,3.761612408948000752e-02
3.340159000000000106e+03,8.890393963336506999e-02,3.924070809735369370e-02
3.342088000000000193e+03,8.757375966031943904e-02,3.903394275553018211e-02
3.344016000000000076e+03,8.625481823401770498e-02,3.745234844949596464e-02
3.345945000000000164e+03,8.494574715795977227e-02,3.731443681050283789e-02
3.347873000000000047e+03,8.364790368571917156e-02,3.796586362450027341e-02
3.349802000000000135e+03,8.235994150664183167e-02,3.865289585310749398e-02
3.351730000000000018e+03,8.108319598846591703e-02,3.983462469282395002e-02
3.353659000000000106e+03,7.981634270637272266e-02,3.859111711370211140e-02
3.355586999999999989e+03,7.856069514225438866e-02,3.866006701280477742e-02
3.357516000000000076e+03,7.731495075714533982e-02,4.022472376019015083e-02
3.359443999999999960e+03,7.608040114709169188e-02,4.205413842634420085e-02
3.361373000000000047e+03,7.485576565896678858e-02,4.118840698835968261e-02
3.363302000000000135e+03,7.364168735577081293e-02,4.147455645298292470e-02
3.365230000000000018e+03,7.243878741182996350e-02,4.281795978315650064e-02
3.367157999999999902e+03,7.124643370989502955e-02,4.233842427049527846e-02
3.369086999999999989e+03,7.006401601573841731e-02,4.087806424303053188e-02
3.371014999999999873e+03,6.889276026786461671e-02,4.189820303952451752e-02
3.372943999999999960e+03,6.773145147069215000e-02,4.016908426164389478e-02
3.374871999999999844e+03,6.658129367688303546e-02,4.073549597236403308e-02
3.376800999999999931e+03,6.544109377668760885e-02,4.105592431691396094e-02
3.378728999999999814e+03,6.431203393693962767e-02,4.153957831414700763e-02
3.380657999999999902e+03,6.319294293373545202e-02,4.239686804372333473e-02
3.382585999999999785e+03,6.208498104804505147e-02,4.419471166397370698e-02
3.384514999999999873e+03,6.098699894182146863e-02,4.421971287461434752e-02
3.386443000000000211e+03,5.990013501019575415e-02,4.348508686385665900e-02
3.388371999999999844e+03,5.882326180095631685e-02,4.326761053301730886e-02
3.390300000000000182e+03,5.775749582339173571e-02,4.469069987053331250e-02
3.392228999999999814e+03,5.670173151113289123e-02,4.383753867991135866e-02
3.394157000000000153e+03,5.565706348763299616e-02,4.495953410662567595e-02
3.396085999999999785e+03,5.462240807235829720e-02,4.669013615082984181e-02
3.398014000000000124e+03,5.359883800291598277e-02,4.690404282190974161e-02
3.399943000000000211e+03,5.258529148462542935e-02,4.461879221091691328e-02
3.401871000000000095e+03,5.158281936924424826e-02,4.599829859295134771e-02
3.403800000000000182e+03,5.059038174793784037e-02,4.709939890504921678e-02
3.405728000000000065e+03,4.960900758662134535e-02,4.584585949111041892e-02
3.407657000000000153e+03,4.863767886229908299e-02,4.357600758266211294e-02
3.409585000000000036e+03,4.767740265504016861e-02,4.367911205232877236e-02
3.411514000000000124e+03,4.672718282770205178e-02,4.215434956894203999e-02
3.413442000000000007e+03,4.578800457450427075e-02,4.233996469669765172e-02
3.415371000000000095e+03,4.485889364415029945e-02,4.315839130480358943e-02
3.417298999999999978e+03,4.394081334501365177e-02,4.481285086200148537e-02
3.419228000000000065e+03,4.303281131164382600e-02,4.314175656463237196e-02
3.421155999999999949e+03,4.213582896656831167e-02,4.163400829209951137e-02
3.423085000000000036e+03,4.124893583017907872e-02,4.208776688891535667e-02
3.425012999999999920e+03,4.037305143916825045e-02,4.293282140021315030e-02
3.426942000000000007e+03,3.950726719976316303e-02,4.047302189353518820e-02
3.428869999999999891e+03,3.865248076280991540e-02,3.995259353214619669e-02
3.430798999999999978e+03,3.780780542039252623e-02,3.948826250642445412e-02
3.432726999999999862e+03,3.697411693750396466e-02,3.830385738777664084e-02
3.434655999999999949e+03,3.615055049206716831e-02,3.859624016799556578e-02
3.436583999999999833e+03,3.533795996323618738e-02,3.726994461575916517e-02
3.438512999999999920e+03,3.453550241478353655e-02,3.639748050243074573e-02
3.440440999999999804e+03,3.374400984001724169e-02,3.611346514229363258e-02
3.442369999999999891e+03,3.296266118854873639e-02,3.405290537366700843e-02
3.444297999999999774e+03,3.219226656784002216e-02,3.577296137110685947e-02
3.446226999999999862e+03,3.143202681335566240e-02,3.814090354144072936e-02
3.448155000000000200e+03,3.068273014670808152e-02,3.817252104100055110e-02
3.450083999999999833e+03,2.994359928920431457e-02,3.797361490264850037e-02
3.452012000000000171e+03,2.921540057662497247e-02,3.999161448452948076e-02
3.453940999999999804e+03,2.849737861610535106e-02,4.007282253622468371e-02
3.455869000000000142e+03,2.779027785758358959e-02,3.828725170877655959e-02
3.457797999999999774e+03,2.709336479404811371e-02,3.855103023273864782e-02
3.459726000000000113e+03,2.640736198958748560e-02,3.736651853199346451e-02
3.461655000000000200e+03,2.573155782303615524e-02,3.466720898177544363e-02
3.463583000000000084e+03,2.506665297263666048e-02,3.684328334597253285e-02
3.465512000000000171e+03,2.441195770306947566e-02,3.633756215945971313e-02
3.467440000000000055e+03,2.376815080673111424e-02,3.579315516718994949e-02
3.469369000000000142e+03,2.313456443414452224e-02,3.554025614606370898e-02
3.471297000000000025e+03,2.251185549186729418e-02,3.740525761841273500e-02
3.473226000000000113e+03,2.189937801626840042e-02,3.675472084150988028e-02
3.475153999999999996e+03,2.129776702805585842e-02,3.783040440629170664e-02
3.477083000000000084e+03,2.070639844943400476e-02,3.705161226521280771e-02
3.479010999999999967e+03,2.012588541528259611e-02,3.644997630512591957e-02
3.480940000000000055e+03,1.955562573364844070e-02,3.547924740897778761e-02
3.482867999999999938e+03,1.899621065355461269e-02,3.667497099003191874e-02
3.484797000000000025e+03,1.844705986890460281e-02,3.704773443009468092e-02
3.486724999999999909e+03,1.790874274287546086e-02,3.820113292679006012e-02
3.488653999999999996e+03,1.738070085520959651e-02,3.883126720301344204e-02
3.490581999999999880e+03,1.686348168323803520e-02,3.957187665093775397e-02
3.492510999999999967e+03,1.635654869255631638e-02,3.896792315622565894e-02
3.494438999999999851e+03,1.586042747464944114e-02,3.840774193806673065e-02
3.496367999999999938e+03,1.537460338094476242e-02,3.841999886306612932e-02
3.498295999999999822e+03,1.489958011709902053e-02,4.039759970701906067e-02
3.500224999999999909e+03,1.443486492038559277e-02,4.244879018928793268e-02
3.502152999999999793e+03,1.398093961060098422e-02,4.630057256972863744e-02
3.504081999999999880e+03,1.353733331086814928e-02,4.475135566113230823e-02
3.506010000000000218e+03,1.310450595514467409e-02,4.244588320891073963e-02
3.507938999999999851e+03,1.268200855239598468e-02,4.176254820490721276e-02
3.509867000000000189e+03,1.227027915073009012e-02,4.552866960091261905e-02
3.511795999999999822e+03,1.186889064496554624e-02,4.773335336595130318e-02
3.513724000000000160e+03,1.147825919736789047e-02,4.639043583952695560e-02
3.515652999999999793e+03,1.109797958858393940e-02,4.317827634995863306e-02
3.517581000000000131e+03,1.072844609504386426e-02,4.289886614593463321e-02
3.519510000000000218e+03,1.036927538324761144e-02,4.322063667578401880e-02
3.521438000000000102e+03,1.002083984376866965e-02,4.482248371834596234e-02
3.523367000000000189e+03,9.682778028953009652e-03,4.378280369549869544e-02
3.525295000000000073e+03,9.355440443535201211e-03,4.176808123846231791e-02
3.527224000000000160e+03,9.038487525707239456e-03,4.155991538544212549e-02
3.529152000000000044e+03,8.732247894347011652e-03,4.345818978886339945e-02
3.531081000000000131e+03,8.436403873503195427e-03,4.410074360451166076e-02
3.533009000000000015e+03,8.151262196207653687e-03,4.566406177023341062e-02
3.534938000000000102e+03,7.876527072344430280e-03,4.572703099901920254e-02
3.536865999999999985e+03,7.612483349110021891e-03,4.432019632338579651e-02
3.538795000000000073e+03,7.358857122230944015e-03,4.279074360555656931e-02
3.540722999999999956e+03,7.115911353061221689e-03,4.130822692653046690e-02
3.542652000000000044e+03,6.883394023162736630e-03,4.032928160607007761e-02
3.544579999999999927e+03,6.661546208050594942e-03,4.203146905526700117e-02
3.546509000000000015e+03,6.450137775139808127e-03,4.072159981709722043e-02
3.548436999999999898e+03,6.249387914092352503e-03,4.107750989243763584e-02
3.550365999999999985e+03,6.059088378158605792e-03,4.252981286514490034e-02
3.552293999999999869e+03,5.879436471172283518e-03,4.444402456188145667e-02
3.554222999999999956e+03,5.710245832229787766e-03,4.511003113127987074e-02
3.556150999999999840e+03,5.551691879301046129e-03,4.382059155342921120e-02
3.558079999999999927e+03,5.403610137339143193e-03,4.408188465695994651e-02
3.560007999999999811e+03,5.266154138475087620e-03,4.854007248641123429e-02
3.561936999999999898e+03,5.139181293497330216e-03,5.261074289532319259e-02
3.563864999999999782e+03,5.022823248690855280e-03,5.713931159412732885e-02
3.565793999999999869e+03,4.916959300697243407e-03,5.348291940141547407e-02
3.567722000000000207e+03,4.821699209955454535e-03,4.907449001474906147e-02
3.569650999999999840e+03,4.736944158945988192e-03,4.906170134797827043e-02
3.571579000000000178e+03,4.662782022261779957e-03,4.776519735709738868e-02
3.573507999999999811e+03,4.599135868236459146e-03,4.368702606444330172e-02
3.575436000000000149e+03,4.546071685613384261e-03,4.143492497869483149e-02
3.577364999999999782e+03,4.503534428572208981e-03,3.658915737371237764e-02
3.579293000000000120e+03,4.471568200013820160e-03,3.618546202337646900e-02
3.581222000000000207e+03,4.450139839953237697e-03,3.902251759459651748e-02
3.583150000000000091e+03,4.439271565455982227e-03,4.266019270220811066e-02
3.585079000000000178e+03,4.438952102379545295e-03,4.357226795220459081e-02
3.587007000000000062e+03,4.449181781943423175e-03,4.777511822816482567e-02
3.588936000000000149e+03,4.469971215851131774e-03,5.285591577495052373e-02
3.590864000000000033e+03,4.501298849476143005e-03,5.787058025696290020e-02
3.592793000000000120e+03,4.543197180367997134e-03,6.533601034010105835e-02
3.594721000000000004e+03,4.595622768054141716e-03,7.667497260240985213e-02
3.596650000000000091e+03,4.658629995926588663e-03,8.444275482162133528e-02
3.598577999999999975e+03,4.732153537677419308e-03,8.598906348445956027e-02
3.600507000000000062e+03,4.816269662534011786e-03,7.673533248039543508e-02
3.602434999999999945e+03,4.910891158342423068e-03,6.193890162443338454e-02
3.604364000000000033e+03,5.016116180186713791e-03,4.772117281203014372e-02
3.606291999999999916e+03,5.131835630056258424e-03,3.808963409601273664e-02
3.608221000000000004e+03,5.258169548881141964e-03,3.263074180257952150e-02
3.610148999999999887e+03,5.394986952811819947e-03,3.031157324126487751e-02
3.612077999999999975e+03,5.542429768620849018e-03,2.852660894562153437e-02
3.614005999999999858e+03,5.700345126616213065e-03,3.279707729327674404e-02
3.615934999999999945e+03,5.868896839409387667e-03,3.038198762435284639e-02
3.617862999999999829e+03,6.047910151462332351e-03,2.882270543531639806e-02
3.619791999999999916e+03,6.237570761239652484e-03,3.076283356505182809e-02
3.621719999999999800e+03,6.437682027357283232e-03,2.952966862461892106e-02
3.623648999999999887e+03,6.648451534115196182e-03,2.758181228878986424e-02
3.625577000000000226e+03,6.869660754293960281e-03,3.054416720486918813e-02
3.627505999999999858e+03,7.101539158036018762e-03,2.999489266244315111e-02
3.629434000000000196e+03,7.343846332275916211e-03,3.026911232536078078e-02
3.631362999999999829e+03,7.596833633002120223e-03,2.764626754965238131e-02
3.633291000000000167e+03,7.860238761303151023e-03,2.594699867931149484e-02
3.635219999999999800e+03,8.134334959013500566e-03,2.647043609122412544e-02
3.637148000000000138e+03,8.418838041375664716e-03,2.346330084470538146e-02
3.639077000000000226e+03,8.714043136070159790e-03,1.869523615231560854e-02
3.641005000000000109e+03,9.019644172493457290e-03,1.880659660381311937e-02
3.642934000000000196e+03,9.335958164168545181e-03,2.075299361992122282e-02
3.644862000000000080e+03,9.662657154652976033e-03,2.039041067108249283e-02
3.646791000000000167e+03,1.000008004331576217e-02,1.896433924304841145e-02
3.648719000000000051e+03,1.034787698786132637e-02,1.803734488619113119e-02
3.650648000000000138e+03,1.070640877350470532e-02,1.870630728835720458e-02
3.652576000000000022e+03,1.107530367211495559e-02,1.676913178730077281e-02
3.654505000000000109e+03,1.145494435474248007e-02,1.138645865748844077e-02
3.656432999999999993e+03,1.184493720741031098e-02,1.401728860882345273e-02
3.658362000000000080e+03,1.224568678702198099e-02,1.392635404993347592e-02
3.660289999999999964e+03,1.265677759375449796e-02,1.193788529920025709e-02
3.662219000000000051e+03,1.307863607035031350e-02,1.063813336258212505e-02
3.664146999999999935e+03,1.351082483113685839e-02,1.010486302896629329e-02
3.666076000000000022e+03,1.395379220471681947e-02,9.550705925274072250e-03
3.668003999999999905e+03,1.440707891957160314e-02,6.971168325955567902e-03
3.669932999999999993e+03,1.487115519013215703e-02,6.321101961389130608e-03
3.671860999999999876e+03,1.534553985904807405e-02,1.179385162988355606e-02
3.673789999999999964e+03,1.583072502659277347e-02,5.437848712414705687e-03
3.675717999999999847e+03,1.632620764956982384e-02,6.207907381260202584e-03
3.677646999999999935e+03,1.683250171409866880e-02,1.428293344207232085e-02
3.679574999999999818e+03,1.734908229113685252e-02,1.167750216251739470e-02
3.681503999999999905e+03,1.787648525264984301e-02,6.031328352929965497e-03
3.683431999999999789e+03,1.841416378374560736e-02,4.324136024199343176e-03
3.685360999999999876e+03,1.896267564224274338e-02,5.883174959192660758e-03
3.687289000000000215e+03,1.952145212740674651e-02,5.783308814673593368e-03
3.689217999999999847e+03,2.009107288288447535e-02,5.894977860065209185e-03
3.691146000000000186e+03,2.067094732210605912e-02,9.874387763307956867e-03
3.693074999999999818e+03,2.126167697456793348e-02,8.217247517497194842e-03
3.695003000000000156e+03,2.186264936785065061e-02,6.566037582518391424e-03
3.696931999999999789e+03,2.247448791729667050e-02,5.248144246859820505e-03
3.698860000000000127e+03,2.309655826464407369e-02,8.415798127844320575e-04
