baseline wavenumber (cm-1),baseline absorbance (cm-1),baseline-subtracted absorbance (cm-1)
3199.379,0.172535681834,1.49880108324e-14
3201.308,0.170710899886,-0.0013758890521
3203.236,0.168896909623,-0.000453734953028
3205.165,0.167091829312,0.00207193667682
3207.093,0.165297530472,0.00241142318659
3209.021,0.163513074792,0.00120185496239
3210.95,0.161737544383,0.00118371793602
3212.878,0.159972780127,0.00352376002843
3214.807,0.158216951355,0.00587454231965
3216.736,0.156470975955,0.00610716761067
3218.664,0.154735751387,0.00566548576924
3220.593,0.153009477625,0.00621307077766
3222.521,0.151293944481,0.00613986414416
3224.449,0.149588254496,0.0059172672766
3226.378,0.147891530636,0.00739067387972
3228.306,0.146205532074,0.00824403806617
3230.235,0.144528509851,0.00677574680648
3232.164,0.142861341,0.0069506391491
3234.092,0.141204882128,0.00758064244078
3236.021,0.139557414914,0.00856014991422
3237.949,0.137920647465,0.00953119429067
3239.877,0.136293723175,0.0103661286455
3241.806,0.134675805864,0.0110008908583
3243.734,0.133068572998,0.0130133449448
3245.663,0.131470357323,0.013069203731
3247.592,0.129881995021,0.0148960856387
3249.52,0.128304301843,0.0165739046289
3251.448,0.126736451825,0.0178520712756
3253.377,0.125177639425,0.0184220670126
3255.305,0.12362948083,0.0165522833412
3257.234,0.122090370067,0.0136141102571
3259.162,0.120561902896,0.0148065880522
3261.091,0.119042493771,0.0155407871409
3263.02,0.117532938017,0.0157503149357
3264.948,0.116034010535,0.0145463347506
3266.876,0.114544926212,0.0149231663306
3268.805,0.11306492036,0.0149887946045
3270.733,0.111595527461,0.0183198286587
3272.662,0.110135223246,0.0208097337676
3274.591,0.108684772405,0.0195683204867
3276.519,0.107244919194,0.0202688852377
3278.448,0.105814169989,0.0219702711933
3280.376,0.104394008202,0.0222400171004
3282.304,0.102983689574,0.0227775811329
3284.233,0.101582490271,0.0246653604313
3286.161,0.100191863067,0.0261459436013
3288.09,0.0988103654013,0.0219745301044
3290.019,0.0974387211084,0.0217365776963
3291.947,0.0960776335925,0.0267146708739
3293.875,0.0947263892357,0.0287391870557
3295.804,0.0933842948446,0.0283321027231
3297.732,0.0920527419116,0.027311345598
3299.661,0.0907303491577,0.0264889840359
3301.589,0.0894184876485,0.0277385333902
3303.518,0.0881157965317,0.0284581183351
3305.447,0.0868229587876,0.0281768315248
3307.375,0.0855406369668,0.0299682048589
3309.303,0.0842681583052,0.0316783364177
3311.232,0.0830048704628,0.0314550442642
3313.16,0.081752083225,0.0296622943524
3315.089,0.0805084970198,0.0306914400739
3317.017,0.0792754012058,0.0323016939225
3318.946,0.0780515166378,0.033691336511
3320.875,0.0768374854424,0.035657482056
3322.803,0.0756339293168,0.0370603462127
3324.731,0.0744402163503,0.034269611007
3326.66,0.0732557350567,0.0342113789435
3328.588,0.072081713514,0.037021557612
3330.517,0.0709169338576,0.0378848414971
3332.445,0.0697626037387,0.0370318674992
3334.374,0.0686175257195,0.0378673418279
3336.302,0.0674828870244,0.036104273107
3338.231,0.0663575106423,0.0353490316097
3340.159,0.065242563371,0.0397152195325
3342.088,0.0641368886261,0.0423626221029
3344.016,0.0630416327786,0.0428674676617
3345.945,0.0619556596709,0.0436321295232
3347.873,0.0608800952472,0.0436595706506
3349.802,0.0598138237767,0.0411673742382
3351.73,0.0587579507768,0.0405164603506
3353.659,0.0577113809435,0.0425078823542
3355.587,0.0566751993673,0.0425122962642
3357.516,0.0556483311712,0.0425027487198
3359.444,0.0546318410188,0.0444708709403
3361.373,0.0536246744599,0.0440383925702
3363.302,0.0526273612736,0.0423827736254
3365.23,0.0516404108096,0.0436564718353
3367.158,0.0506633035048,0.0452087870802
3369.087,0.0496955402202,0.0463917597029
3371.015,0.0487381243393,0.0480123474578
3372.944,0.0477900626919,0.0471428023392
3374.872,0.0468523382347,0.047502068699
3376.801,0.0459239782245,0.0500491817671
3378.729,0.0450059451911,0.0496593235585
3380.658,0.0440972868181,0.0491281273149
3382.586,0.0431989452084,0.0495792053472
3384.515,0.0423099884726,0.0488288246958
3386.443,0.0414313382868,0.0502350138485
3388.372,0.0405620831881,0.049468740884
3390.3,0.0397031244261,0.0501659955851
3392.229,0.0388535709646,0.0508899811427
3394.157,0.0380143036264,0.0500669503052
3396.086,0.0371844518021,0.0507071397265
3398.014,0.0363648758877,0.0536925435573
3399.943,0.0355547257006,0.0562483077795
3401.871,0.0347548412099,0.0583291037121
3403.8,0.03396439266,0.0557919503888
3405.728,0.0331841995932,0.0552022196422
3407.657,0.0324134526804,0.0575224178724
3409.585,0.0316529510374,0.0584440294617
3411.514,0.0309019057618,0.0588273526432
3413.442,0.0301610955425,0.0607438460944
3415.371,0.0294297519042,0.0609173858606
3417.299,0.0287086331087,0.0595732568752
3419.228,0.0279969911075,0.0582324070892
3421.156,0.0272955637358,0.0592092940261
3423.085,0.0266036233718,0.0612044076619
3425.013,0.0259218874239,0.0653653845409
3426.942,0.0252496486971,0.0674455704264
3428.87,0.024587604173,0.0668838084223
3430.799,0.0239350670834,0.063449919287
3432.727,0.023292713983,0.0619294499927
3434.656,0.0226598785306,0.0632794518671
3436.584,0.022037216854,0.0645715061487
3438.513,0.0214240830388,0.0654263048832
3440.441,0.020821112786,0.0677616439065
3442.37,0.020227680608,0.0664325905879
3444.298,0.019644401779,0.0648783842698
3446.227,0.0190706712381,0.0645761450056
3448.155,0.018507083833,0.0643805236319
3450.084,0.0179530549293,0.0653820258004
3452.012,0.0174091589479,0.0662066584841
3453.941,0.0168748316814,0.0686209745673
3455.869,0.0163506271238,0.0709807840735
3457.798,0.0158360014945,0.0699571067742
3459.726,0.0153314883607,0.0699269166159
3461.655,0.0148365643685,0.0691681885496
3463.583,0.0143517426585,0.0694167273212
3465.512,0.0138765203036,0.069670030336
3467.44,0.0134113900174,0.0694329169652
3469.369,0.0129558692996,0.0693644983526
3471.297,0.0125104304372,0.0683651898885
3473.226,0.0120746113566,0.0681235433928
3475.154,0.0116488639179,0.0683611311893
3477.083,0.0112327464745,0.0679892427615
3479.011,0.0108266904597,0.0698453581878
3480.94,0.0104302746535,0.0682601915519
3482.868,0.0100439100624,0.0639620310853
3484.797,0.00966719589339,0.0663908176664
3486.725,0.00930052272613,0.069361565762
3488.654,0.00894351019428,0.0663771370413
3490.582,0.00859652845081,0.0653019827675
3492.511,0.00825921755615,0.0644012633273
3494.439,0.00793192723646,0.0641623972201
3496.368,0.00761431797899,0.0645417944135
3498.296,0.00730671908309,0.0660292702927
3500.225,0.0070088114628,0.0652247455373
3502.153,0.0067209039907,0.0636102625711
3504.082,0.00644269800759,0.0599316292448
3506.01,0.00617448195928,0.0621361352211
3507.939,0.00591597761336,0.064811638239
3509.867,0.00566745298883,0.0652192458299
3511.796,0.00542865028009,0.0629645488532
3513.724,0.00519981707937,0.0593079763085
3515.653,0.00498071600781,0.0582913186605
3517.581,0.00477157423087,0.0578470040874
3519.51,0.0045721747965,0.0570750608224
3521.438,0.00438272444336,0.0572858294114
3523.367,0.00420302664617,0.0544231353724
3525.295,0.00403326771681,0.0542519423202
3527.224,0.00387327155681,0.0533607048184
3529.152,0.00372320405124,0.0502684433941
3531.081,0.00358290952843,0.0519436159486
3533.009,0.00345253344665,0.0547955968392
3534.938,0.00333194056102,0.055075377535
3536.866,0.00322125590304,0.0517218838188
3538.795,0.00312036465459,0.0509423668754
3540.723,0.00302937142039,0.0505387071425
3542.652,0.00294818180913,0.0527734579476
3544.58,0.00287687999873,0.0522856977604
3546.509,0.00281539202465,0.0446774087023
3548.437,0.00276378163803,0.0442089939264
3550.366,0.00272199530114,0.0492156226481
3552.294,0.00269007633832,0.0500663715543
3554.223,0.00266799163861,0.0533437159171
3556.151,0.00265576409958,0.0548928135198
3558.08,0.00265338103706,0.0582469474735
3560.008,0.00266084492181,0.0620520229051
3561.937,0.00267816349647,0.0657026291225
3563.865,0.00270531880502,0.067790347652
3565.794,0.00274233901687,0.0595416827906
3567.722,0.00278918574921,0.0458146095957
3569.651,0.00284590759824,0.0455885300896
3571.579,0.00291244575437,0.0484668091558
3573.508,0.00298886924059,0.0498227264818
3575.436,0.0030750988205,0.049091637742
3577.365,0.0031712239439,0.0470125322594
3579.293,0.00327714494761,0.0479895077399
3581.222,0.0033929717082,0.0487162056176
3583.15,0.0035185841357,0.0506423860188
3585.079,0.00365411253347,0.0533718537767
3587.007,0.00379941638476,0.0489914202686
3588.936,0.00395464641972,0.0472212115519
3590.864,0.0041196416948,0.0603200032343
3592.793,0.00429457336694,0.0754742460921
3594.721,0.00447926006581,0.0923861205171
3596.65,0.00467389337513,0.102874998776
3598.578,0.0048782714978,0.106610859697
3600.507,0.00509260644431,0.0938762899001
3602.435,0.00531667599076,0.0705307413574
3604.364,0.00555071257445,0.0547650419513
3606.292,0.0057944735447,0.0456664546723
3608.221,0.00604821176558,0.0377761399504
3610.149,0.00631166415961,0.0315335514691
3612.078,0.00658510401767,0.0314557850576
3614.006,0.0068682478355,0.0234218898593
3615.935,0.00716138933075,0.0263419307224
3617.863,0.00746422457237,0.027617623474
3619.792,0.0077770677048,0.0174835389912
3621.72,0.0080995943702,0.0220368423391
3623.649,0.00843213913982,0.0254348490478
3625.577,0.00877435722902,0.0259263487191
3627.506,0.00912660363582,0.0303927225681
3629.434,0.00948851314881,0.012826752106
3631.363,0.00986046119279,0.0110229525208
3633.291,0.0102420621296,0.0158875946818
3635.22,0.0106337118107,0.0163724739724
3637.148,0.0110350041713,0.0200756409674
3639.077,0.0114463554897,0.0197324730558
3641.005,0.011867339274,0.0196815878246
3642.934,0.0122983922296,0.0190942477369
3644.862,0.0127390674377,0.0238974741154
3646.791,0.0131898220304,0.020948012596
3648.719,0.0136501886624,0.011350580192
3650.648,0.0141206448923,0.00177038746948
3652.576,0.014600702948,0.00445199852677
3654.505,0.0150908608151,0.0178281648367
3656.433,0.0155906102946,0.0144817319155
3658.362,0.0161004697989,0.0139920024175
3660.29,0.0166199107022,0.0185847094138
3662.219,0.0171494718437,0.0175981342233
3664.147,0.0176886041708,0.0199273880009
3666.076,0.0182378669495,0.022189511257
3668.004,0.0187966907003,0.0192667747362
3669.933,0.0193656551162,0.00225156023295
3671.861,0.0199441702909,-0.000317833532636
3673.79,0.0205328363439,0.0164439931801
3675.718,0.0211310429424,-0.00308166152068
3677.647,0.0217394106326,-0.00727820283219
3679.575,0.0223573086548,0.00133196932099
3681.504,0.0229853779822,0.00410475272304
3683.432,0.0236229674283,0.00955551163792
3685.361,0.0242707383928,0.0121388862664
3687.289,0.0249280192627,0.0159882105549
3689.218,0.0255954918644,0.000413489752943
3691.146,0.0262724641581,-0.00980381244913
3693.075,0.026959638397,-0.00354900024787
3695.003,0.0276563021145,0.00562128927438
3696.932,0.0283631779906,0.00806346630942
3698.86,0.0290795331318,0.00734711116819
