baseline wavenumber (cm-1),baseline absorbance (cm-1),baseline-subtracted absorbance (cm-1)
3199.379,0.20246066916,7.9936057773e-15
3201.308,0.200548076706,-0.00021664033643
3203.236,0.198646321457,0.000149837442908
3205.165,0.19675343064,0.00119106546827
3207.093,0.194871366816,0.00109723724785
3209.021,0.19299914615,0.000817886094651
3210.95,0.191135805235,0.00208909115649
3212.878,0.189283275993,0.0032051905991
3214.807,0.187439636715,0.00298090306045
3216.736,0.185605850809,0.00336861598524
3218.664,0.183782861256,0.00326564779043
3220.593,0.181968776988,0.004038541318
3222.521,0.180165478859,0.00532303827476
3224.449,0.178372023888,0.00649342642993
3226.378,0.176587489522,0.00727710160329
3228.306,0.174813725975,0.00768889203729
3230.235,0.173048893246,0.00736381270781
3232.164,0.171293913889,0.00851609318676
3234.092,0.169549690031,0.00975106808078
3236.021,0.167814412311,0.0106774910548
3237.949,0.166089879877,0.00972235099319
3239.877,0.164375190602,0.0102279530347
3241.806,0.162669462784,0.0115618522871
3243.734,0.160974464933,0.0118592457715
3245.663,0.159288438752,0.0122445542731
3247.592,0.157612265944,0.0130104369772
3249.52,0.155946807781,0.0139616527464
3251.448,0.154291192778,0.0154001950723
3253.377,0.152644569871,0.0143613332926
3255.305,0.151008646292,0.0139495969108
3257.234,0.149381725022,0.0148474167952
3259.162,0.147765492866,0.0158296653264
3261.091,0.146158273234,0.0163968061148
3263.02,0.144560906975,0.0166460979783
3264.948,0.142974214507,0.0163460523482
3266.876,0.141397365199,0.017416432436
3268.805,0.139829548841,0.0186814084015
3270.733,0.138272390956,0.0191324811754
3272.662,0.136724276236,0.0182795042149
3274.591,0.135186014888,0.0187906251605
3276.519,0.133658396692,0.0192735653016
3278.448,0.132139836981,0.0208343771097
3280.376,0.130631910209,0.0215131822811
3282.304,0.129133826595,0.0217835291107
3284.233,0.127644816786,0.0216640278512
3286.161,0.126166424597,0.0228449369718
3288.09,0.124697116425,0.0232740146776
3290.019,0.123237661626,0.0245522807575
3291.947,0.121788809125,0.0253087244847
3293.875,0.120349799783,0.0259816871269
3295.804,0.118919894886,0.0258847043259
3297.732,0.117500576968,0.0261263208389
3299.661,0.116090373707,0.0265236361986
3301.589,0.114690747213,0.0274162375236
3303.518,0.11330024559,0.0283678934982
3305.447,0.11191959734,0.0290935836975
3307.375,0.110549510534,0.0282435148378
3309.303,0.109189266887,0.028068379934
3311.232,0.107838168538,0.0288246637673
3313.16,0.106497616315,0.0304801861712
3315.089,0.105166219604,0.0311418669219
3317.017,0.103845358805,0.0308035747846
3318.946,0.102533663731,0.0303127327114
3320.875,0.101231822029,0.0312487096603
3322.803,0.0999405009181,0.0304487035699
3324.731,0.0986590229665,0.030807913251
3326.66,0.0973867311666,0.0317771624956
3328.588,0.0961249446389,0.0323741355188
3330.517,0.0948723544761,0.0320764881399
3332.445,0.0936302593722,0.0322571256476
3334.374,0.0923973708466,0.0312570211477
3336.302,0.0911749671664,0.0321727938767
3338.231,0.0899617802781,0.0328753672
3340.159,0.0887590680217,0.0334275184536
3342.088,0.0875655827705,0.0335242180988
3344.016,0.0863825619379,0.0344144056149
3345.945,0.0852087783239,0.0347401653737
3347.873,0.0840454489151,0.0344036969456
3349.802,0.0828913669383,0.0343487422298
3351.73,0.0817477289533,0.0349739328278
3353.659,0.0806133486136,0.0343089600895
3355.587,0.0794894020524,0.034028428737
3357.516,0.07837472335,0.0343084768926
3359.444,0.0772704682125,0.0358918586853
3361.373,0.0761754911473,0.0360557733832
3363.302,0.0750903674546,0.0353747492946
3365.23,0.0740156520056,0.035123072345
3367.158,0.0729507797157,0.036993160444
3369.087,0.0718952059248,0.0376295994932
3371.015,0.0708500250588,0.0378919035776
3372.944,0.0698141529051,0.037327047944
3374.872,0.0687886634628,0.0377999244276
3376.801,0.0677724929463,0.0380789575743
3378.729,0.0667666949278,0.0382343563206
3380.658,0.0657702260485,0.037668558951
3382.586,0.0647841194538,0.037643950899
3384.515,0.0638073522116,0.0375950939624
3386.443,0.0628409370407,0.0389121611095
3388.372,0.0618838714358,0.0385635054974
3390.3,0.0609371476887,0.0379120284965
3392.229,0.0599997837209,0.0377950611189
3394.157,0.0590727513976,0.0396608380091
3396.086,0.058155089067,0.0393407564804
3398.014,0.0572477481674,0.038851958696
3399.943,0.056349787474,0.0402100932497
3401.871,0.0554621379983,0.0410358808029
3403.8,0.054583878942,0.0405894153064
3405.728,0.0537159208901,0.041162366788
3407.657,0.0528573634711,0.0411933188296
3409.585,0.0520090968429,0.0419004250412
3411.514,0.0511702410611,0.0406676645288
3413.442,0.0503416658567,0.0394542403396
3415.371,0.049522511712,0.0384659548805
3417.299,0.0487136279315,0.0376385301601
3419.228,0.047914175424,0.0367931327738
3421.156,0.0471249830672,0.0369178148708
3423.085,0.0463452321969,0.0368904799228
3425.013,0.0455757312639,0.0371575599521
3426.942,0.0448156820308,0.0371260949833
3428.87,0.0440658725216,0.0366330307434
3430.799,0.0433255249256,0.0354785082291
3432.727,0.0425954068402,0.0354421095855
3434.656,0.0418747608815,0.0346163489942
3436.584,0.0411643342199,0.0347251532966
3438.513,0.0404633898983,0.0343590097783
3440.441,0.0397726546605,0.0339442916652
3442.37,0.0390914119761,0.0331351825857
3444.298,0.038420368162,0.0347605122585
3446.227,0.0377588271148,0.0335130418834
3448.155,0.0371074747246,0.0330069041291
3450.084,0.0364656353146,0.0349984402944
3452.012,0.0358339743481,0.0364817741609
3453.941,0.0352118365753,0.0362029920914
3455.869,0.0345998670326,0.0370617118615
3457.798,0.033997430897,0.0369077899663
3459.726,0.0334051527781,0.0359893231139
3461.655,0.0328224182796,0.0347483236591
3463.583,0.0322498315846,0.0354190605614
3465.512,0.0316867987233,0.0357886839412
3467.44,0.031133903452,0.0361879908167
3469.369,0.0305905722279,0.0364505325937
3471.297,0.0300573683804,0.0376067577694
3473.226,0.0295337387935,0.0368918348444
3475.154,0.0290202263698,0.0361960376553
3477.083,0.0285162984201,0.0368313160548
3479.011,0.0280224774202,0.037275859788
3480.94,0.0275382511076,0.0364359174964
3482.868,0.0270641215315,0.038346709359
3484.797,0.0265995968561,0.0402444191148
3486.725,0.0261451587038,0.0391880112143
3488.654,0.0257003356656,0.0382675456646
3490.582,0.0252655889371,0.0402509429542
3492.511,0.0248404675361,0.0418489846018
3494.439,0.0244254122313,0.0426616088947
3496.368,0.0240199924675,0.0421946037116
3498.296,0.0236246285866,0.0434865409272
3500.225,0.02323891046,0.0433451186515
3502.153,0.0228632380028,0.0401896579843
3504.082,0.0224972215134,0.0403572462922
3506.01,0.02214124048,0.043888578584
3507.939,0.0217949256277,0.0441466744936
3509.867,0.0214586360181,0.0470342478391
3511.796,0.0211320228031,0.0505246182563
3513.724,0.0208154246173,0.0504029419045
3515.653,0.0205085130394,0.0489089437482
3517.581,0.0202116062774,0.0490720437782
3519.51,0.0199243963367,0.0482889110524
3521.438,0.0196471809985,0.0460377730094
3523.367,0.019379672695,0.0437076870544
3525.295,0.0191221487805,0.0443120471156
3527.224,0.0188743421142,0.0406351292292
3529.152,0.0186365096236,0.0413484039517
3531.081,0.0184084045944,0.046857818998
3533.009,0.0181902635276,0.0503645631175
3534.938,0.0179818601356,0.0487198329807
3536.866,0.0177834104926,0.0480426129584
3538.795,0.0175947087378,0.0491423477668
3540.723,0.0174159505185,0.0493479734681
3542.652,0.0172469504009,0.0459083108949
3544.58,0.0170878836055,0.0409816706248
3546.509,0.0169385851251,0.0408921739975
3548.437,0.0167992097534,0.045148374397
3550.366,0.0166696129102,0.0447466410067
3552.294,0.0165499289623,0.0437989591404
3554.223,0.0164400337562,0.0500957086879
3556.151,0.0163400412321,0.0562723412605
3558.08,0.0162498476633,0.0598119283399
3560.008,0.016169546563,0.0628459896748
3561.937,0.0160990546313,0.0664992674146
3563.865,0.0160384449548,0.0678268032005
3565.794,0.0159876546603,0.0598652918675
3567.722,0.0159467364076,0.0518592627838
3569.651,0.0159156477503,0.0550534617211
3571.579,0.0158944209214,0.0563454709214
3573.508,0.0158830339012,0.0544774432038
3575.436,0.0158814984961,0.0520849323136
3577.365,0.0158898131132,0.0493018122785
3579.293,0.0159079691318,0.0486774751217
3581.222,0.0159359853861,0.0506590969954
3583.15,0.0159738328285,0.0519635067045
3585.079,0.0160215507199,0.049225811051
3587.007,0.0160790895862,0.045071885851
3588.936,0.0161465091148,0.0575508223317
3590.864,0.0162237394048,0.0719965072342
3592.793,0.0163108605706,0.0817532150384
3594.721,0.0164077822844,0.0986219255898
3596.65,0.0165146050874,0.117406086311
3598.578,0.016631218225,0.123402330749
3600.507,0.0167577426652,0.107893768504
3602.435,0.0168940472266,0.0827238037792
3604.364,0.017040273304,0.0631947666233
3606.292,0.0171962692891,0.0453175637241
3608.221,0.0173621970037,0.0322394455719
3610.149,0.0175378844127,0.0307459829683
3612.078,0.0177235137644,0.0229411329555
3614.006,0.0179188925971,0.02055624639
3615.935,0.0181242235861,0.0233321496071
3617.863,0.0183392938426,0.0181254483994
3619.792,0.0185643264687,0.0175073433989
3621.72,0.0187990881491,0.0299630214234
3623.649,0.0190438224123,0.0362069003209
3625.577,0.0192982755165,0.0345636672713
3627.506,0.019562711417,0.0238743198173
3629.434,0.0198368559449,0.0172479904111
3631.363,0.0201209934825,0.0238044942361
3633.291,0.0204148294342,0.021701060589
3635.22,0.0207186686091,0.0240483787982
3637.148,0.0210321959846,0.0248898246361
3639.077,0.0213557367966,0.0228858026757
3641.005,0.0216889555959,0.0230161439694
3642.934,0.0220321980451,0.0231220726513
3644.862,0.0223851082682,0.0205701328113
3646.791,0.0227480523546,0.00594946609278
3648.719,0.0231206540015,-0.00932228646888
3650.648,0.0235032997251,-0.00428713678156
3652.576,0.0238955927957,0.0116534868566
3654.505,0.0242979401565,0.0132811693149
3656.433,0.0247099246509,0.0138164121529
3658.362,0.0251319736489,0.0174428216609
3660.29,0.0255636495671,0.0188970347551
3662.219,0.0260054002023,0.0194031310825
3664.147,0.0264567675443,0.0199463457681
3666.076,0.0269182198166,0.0166145407211
3668.004,0.0273892785825,0.00666447558715
3669.933,0.027870432492,-0.00690392081705
3671.861,0.0283611826816,0.00268640349046
3673.79,0.0288620382283,-0.00563558012659
3675.718,0.0293724798417,-0.0221265433209
3677.647,0.0298930370256,-0.00500562168138
3679.575,0.0304231700628,0.00332922910837
3681.504,0.0309634288838,0.0103023398415
3683.432,0.0315132533448,0.0122978100333
3685.361,0.0320732138031,0.0105934040075
3687.289,0.0326427296878,0.00284382191431
3689.218,0.0332223917833,-0.00907005679893
3691.146,0.0338115990918,-0.00221471543672
3693.075,0.0344109628244,0.00632190384896
3695.003,0.0350198615568,0.00602405838659
3696.932,0.0356389269266,0.00557423389418
3698.86,0.0362675170828,0.00494564373803
