wavenumber (/cm),baseline value (/cm),baseline-subtracted absorbance (/cm),
3.199378999999999905e+03,2.090220521422949673e-01,-1.519186412114459372e-04
3.201307999999999993e+03,2.069712441967048733e-01,2.982742208530453354e-04
3.203235999999999876e+03,2.049320483737844256e-01,1.390730685417507217e-03
3.205164999999999964e+03,2.029023493251784771e-01,3.465862039887634971e-03
3.207092999999999847e+03,2.008842514563191628e-01,3.817293242080355142e-03
3.209021000000000186e+03,1.988766998294693167e-01,2.617324074913329746e-03
3.210949999999999818e+03,1.968786613898956261e-01,2.184384671472971995e-03
3.212878000000000156e+03,1.948922077171069134e-01,4.781378639222233495e-03
3.214806999999999789e+03,1.929152781745173684e-01,6.312372625790318992e-03
3.216735999999999876e+03,1.909489058168603037e-01,6.022506778372793690e-03
3.218664000000000215e+03,1.889941018101843895e-01,7.110602180869007860e-03
3.220592999999999847e+03,1.870488383495114704e-01,7.774325136893800448e-03
3.222521000000000186e+03,1.851151322969002422e-01,6.486531224453084832e-03
3.224449000000000069e+03,1.831919724862949295e-01,8.002547678659377439e-03
3.226378000000000156e+03,1.812783696346578211e-01,1.048335539504807734e-02
3.228306000000000040e+03,1.793763077781171944e-01,1.175915038921349076e-02
3.230235000000000127e+03,1.774838138234606788e-01,9.689248313954679226e-03
3.232164000000000215e+03,1.756018770537330909e-01,7.755919828911883585e-03
3.234092000000000098e+03,1.737314648633052627e-01,6.737536324924353615e-03
3.236021000000000186e+03,1.718706369905653730e-01,8.328915675961501286e-03
3.237949000000000069e+03,1.700213227542022310e-01,1.078702281090582193e-02
3.239876999999999953e+03,1.681825547598414516e-01,1.287986223883064163e-02
3.241806000000000040e+03,1.663533874961373726e-01,1.413658244864501867e-02
3.243733999999999924e+03,1.645357174558412794e-01,1.486876985806118157e-02
3.245663000000000011e+03,1.627276590891177932e-01,1.312122607199228685e-02
3.247592000000000098e+03,1.609301579073303401e-01,1.476880064442753770e-02
3.249519999999999982e+03,1.591441375331470454e-01,1.696336229211348190e-02
3.251447999999999865e+03,1.573686634009732188e-01,1.812515081584387122e-02
3.253376999999999953e+03,1.556028228282180237e-01,1.816141845227414731e-02
3.255304999999999836e+03,1.538484466501088832e-01,1.663593162625942590e-02
3.257233999999999924e+03,1.521037149743378336e-01,1.620795064389102258e-02
3.259161999999999807e+03,1.503704367502862738e-01,1.843713996041496106e-02
3.261090999999999894e+03,1.486468139714993697e-01,1.762319371704490489e-02
3.263019999999999982e+03,1.469337483776449460e-01,1.628460627392436244e-02
3.264947999999999865e+03,1.452321198197061847e-01,1.588097167396829157e-02
3.266876000000000204e+03,1.435410375037768915e-01,1.708907363063305596e-02
3.268804999999999836e+03,1.418596325189582785e-01,1.776467725947195042e-02
3.270733000000000175e+03,1.401896481570901187e-01,2.075429536705908351e-02
3.272661999999999807e+03,1.385293520692556513e-01,2.291399734012444789e-02
3.274590999999999894e+03,1.368796131663501114e-01,2.308543890606207238e-02
3.276518999999999778e+03,1.352412784705983029e-01,2.399825462508919927e-02
3.278447999999999865e+03,1.336126484646769086e-01,2.374808404388550898e-02
3.280376000000000204e+03,1.319954117229826807e-01,2.370599318370647524e-02
3.282304000000000087e+03,1.303887212233014736e-01,2.563804888923082448e-02
3.284233000000000175e+03,1.287917518264158900e-01,2.689287807503104588e-02
3.286161000000000058e+03,1.272061592807958164e-01,2.673247215835983237e-02
3.288090000000000146e+03,1.256302987808943783e-01,2.430714442872328185e-02
3.290018999999999778e+03,1.240649954659218679e-01,2.616006918774427259e-02
3.291947000000000116e+03,1.225110525864145927e-01,2.906055571721311015e-02
3.293875000000000000e+03,1.209676559489167857e-01,3.019925535324319288e-02
3.295804000000000087e+03,1.194340132429836387e-01,3.109055515011072135e-02
3.297731999999999971e+03,1.179117145595434124e-01,3.058552455417729021e-02
3.299661000000000058e+03,1.163991807505944109e-01,2.963632634383495112e-02
3.301588999999999942e+03,1.148979800212188707e-01,3.064161598073833481e-02
3.303518000000000029e+03,1.134065551092504620e-01,3.152354903557397225e-02
3.305447000000000116e+03,1.119256873822145337e-01,3.093060673954417528e-02
3.307375000000000000e+03,1.104561363189517920e-01,3.172181852832589577e-02
3.309302999999999884e+03,1.089971314976985184e-01,3.386615220957778227e-02
3.311231999999999971e+03,1.075479243797019535e-01,3.562954119658945373e-02
3.313159999999999854e+03,1.061100175125062606e-01,3.377115953369502765e-02
3.315088999999999942e+03,1.046819192914902885e-01,3.291855600032511653e-02
3.317016999999999825e+03,1.032651103783628344e-01,3.522409071201260122e-02
3.318945999999999913e+03,1.018581210543274551e-01,3.693757336099379174e-02
3.320875000000000000e+03,1.004616889152245562e-01,3.634162414831088039e-02
3.322802999999999884e+03,9.907652966820990059e-02,3.570993849422821054e-02
3.324731000000000222e+03,9.770191666320116042e-02,3.572088336475731651e-02
3.326659999999999854e+03,9.633714513313407224e-02,3.686268711681350840e-02
3.328588000000000193e+03,9.498363008219001813e-02,3.999400324415391950e-02
3.330516999999999825e+03,9.363996744910707548e-02,4.049961457367912132e-02
3.332445000000000164e+03,9.230755035222060201e-02,3.948912260507309036e-02
3.334373999999999796e+03,9.098499661612180489e-02,4.030737774607862089e-02
3.336302000000000135e+03,8.967367747330001748e-02,3.905806223453534010e-02
3.338231000000000222e+03,8.837223263418181318e-02,3.986289702262968415e-02
3.340159000000000106e+03,8.708201144542115912e-02,4.437217182151131922e-02
3.342088000000000193e+03,8.580167550329065307e-02,4.538585507614600889e-02
3.344016000000000076e+03,8.453255226858757965e-02,4.503619030497807429e-02
3.345945000000000164e+03,8.327332522344121912e-02,4.483109918419159179e-02
3.347873000000000047e+03,8.202529994280283177e-02,4.590473430616626160e-02
3.349802000000000135e+03,8.078718179464061677e-02,4.520289299392454829e-02
3.351730000000000018e+03,7.956025446805981005e-02,4.272568947546440121e-02
3.353659000000000106e+03,7.834324521687818788e-02,4.400595447558008910e-02
3.355586999999999989e+03,7.713741584436206722e-02,4.573844911684588066e-02
3.357516000000000076e+03,7.594151549016814329e-02,4.703814481597579089e-02
3.359443999999999960e+03,7.475678407170960327e-02,4.906721816495795974e-02
3.361373000000000047e+03,7.358199261449627215e-02,4.998514235440021380e-02
3.363302000000000135e+03,7.241775834221542141e-02,4.822772988033308117e-02
3.365230000000000018e+03,7.126467658987323261e-02,4.645497113501684261e-02
3.367157999999999902e+03,7.012214107954051201e-02,4.696739551093964682e-02
3.369086999999999989e+03,6.898956741629547196e-02,4.899393716188304992e-02
3.371014999999999873e+03,6.786812986002388470e-02,5.099186874205907660e-02
3.372943999999999960e+03,6.675666509375943747e-02,5.087316645722972375e-02
3.374871999999999844e+03,6.565632549154898356e-02,4.992695541989311536e-02
3.376800999999999931e+03,6.456596962227223457e-02,4.980531716042169155e-02
3.378728999999999814e+03,6.348672797412291402e-02,5.080557649222228189e-02
3.380657999999999902e+03,6.241748100182675785e-02,5.087286638057342270e-02
3.382585999999999785e+03,6.135933730774212336e-02,5.258418684127608156e-02
3.384514999999999873e+03,6.031119923243011272e-02,5.333386961498731704e-02
3.386443000000000211e+03,5.927415349240305886e-02,5.525544740226395746e-02
3.388371999999999844e+03,5.824712431407519375e-02,5.517986946519382041e-02
3.390300000000000182e+03,5.723117652810927325e-02,5.467348552543105367e-02
3.392228999999999814e+03,5.622525624676200096e-02,5.415672460177378689e-02
3.394157000000000153e+03,5.523040641486076652e-02,5.510684108636243472e-02
3.396085999999999785e+03,5.424559503050119247e-02,5.686749646317335039e-02
3.398014000000000124e+03,5.327184315265753867e-02,5.969942965086538766e-02
3.399943000000000211e+03,5.230814066528211015e-02,6.007146372417770941e-02
3.401871000000000095e+03,5.135548674149958970e-02,6.018711478223015554e-02
3.403800000000000182e+03,5.041289315110830671e-02,5.815913452765042457e-02
3.405728000000000065e+03,4.948133718138691961e-02,5.804714537959732024e-02
3.407657000000000153e+03,4.855985248797622944e-02,5.931566299395574227e-02
3.409585000000000036e+03,4.764939447231952840e-02,6.007095221112224159e-02
3.411514000000000124e+03,4.674901867589298377e-02,6.074696231243437161e-02
3.413442000000000007e+03,4.585965861429741608e-02,6.308211813834119219e-02
3.415371000000000095e+03,4.498039171485501697e-02,6.214828655452364625e-02
3.417298999999999978e+03,4.411212960732058264e-02,6.135023147466733828e-02
3.419228000000000065e+03,4.325397160485877635e-02,6.129834544274037622e-02
3.421155999999999949e+03,4.240680745138547536e-02,6.265819569392816479e-02
3.423085000000000036e+03,4.156975834591136731e-02,6.466774776997608054e-02
3.425012999999999920e+03,4.074369214649564697e-02,6.721185408961272145e-02
3.426942000000000007e+03,3.992775193800213174e-02,6.912690662074538750e-02
3.428869999999999891e+03,3.912278369265465017e-02,7.037256823297621811e-02
3.430798999999999978e+03,3.832795238114528047e-02,6.783231881477291836e-02
3.432726999999999862e+03,3.754408208985537954e-02,6.697852921929403625e-02
3.434655999999999949e+03,3.677035967533015537e-02,6.872625037569402018e-02
3.436583999999999833e+03,3.600758733810138779e-02,6.925871587011844799e-02
3.438512999999999920e+03,3.525497382056030915e-02,6.850297683296602269e-02
3.440440999999999804e+03,3.451329943739267492e-02,7.030287446349514635e-02
3.442369999999999891e+03,3.378179481683574181e-02,7.129159583109889731e-02
3.444297999999999774e+03,3.306121838773279364e-02,6.937395320659178743e-02
3.446226999999999862e+03,3.235082266415290064e-02,6.695301461829639145e-02
3.448155000000000200e+03,3.165134418911108583e-02,6.789118743876343398e-02
3.450083999999999833e+03,3.096205736252244378e-02,6.941083702484052154e-02
3.452012000000000171e+03,3.028367684153820960e-02,6.919175476536754132e-02
3.453940999999999804e+03,2.961549891193016038e-02,7.199175627783716003e-02
3.455869000000000142e+03,2.895821634501061226e-02,7.483048848479312287e-02
3.457797999999999774e+03,2.831114731238670856e-02,7.498129694566890713e-02
3.459726000000000113e+03,2.767496269952474108e-02,7.373798201285386433e-02
3.461655000000000200e+03,2.704900256388498292e-02,7.204409871520922604e-02
3.463583000000000084e+03,2.643391590508414879e-02,7.397532432697018212e-02
3.465512000000000171e+03,2.582906466642853616e-02,7.456654587386657429e-02
3.467440000000000055e+03,2.523507596169238809e-02,7.399956442413291313e-02
3.469369000000000142e+03,2.465133362002092099e-02,7.306586774993795164e-02
3.471297000000000025e+03,2.407844286934235356e-02,7.109909260280433685e-02
3.473226000000000113e+03,2.351580942465503199e-02,7.045532358715744792e-02
3.475153999999999996e+03,2.296401662804115062e-02,7.045074537657214364e-02
3.477083000000000084e+03,2.242249208033797458e-02,7.019196238251246278e-02
3.479010999999999967e+03,2.189179723778167386e-02,7.173125441525551871e-02
3.480940000000000055e+03,2.137138158705909063e-02,7.268886864010259963e-02
3.482867999999999938e+03,2.086178469857102868e-02,6.984101812522169883e-02
3.484797000000000025e+03,2.036247794482903828e-02,7.112875012534647379e-02
3.486724999999999909e+03,1.987397901039855697e-02,7.433305251263222502e-02
3.488653999999999996e+03,1.939578115364426480e-02,7.237398189940680293e-02
3.490581999999999880e+03,1.892838017327846956e-02,6.958178967364980760e-02
3.492510999999999967e+03,1.847129121350121750e-02,6.875594021167530379e-02
3.494438999999999851e+03,1.802498818719655560e-02,6.920119480015229918e-02
3.496367999999999938e+03,1.758900812441055450e-02,6.778178938729706449e-02
3.498295999999999822e+03,1.716380305215992053e-02,6.900835043913822187e-02
3.500224999999999909e+03,1.674893188635806496e-02,6.871482711273346755e-02
3.502152999999999793e+03,1.634482476817211705e-02,6.638810316920118471e-02
3.504081999999999880e+03,1.595106249935440701e-02,6.287748296789952285e-02
3.506010000000000218e+03,1.556805333522959245e-02,6.471257852330125626e-02
3.507938999999999851e+03,1.519539996339247523e-02,6.874707574779792552e-02
3.509867000000000189e+03,1.483348875332879402e-02,7.043351341344283867e-02
3.511795999999999822e+03,1.448194427847582233e-02,6.862562544263983710e-02
3.513724000000000160e+03,1.414113102247682718e-02,6.630165922006181489e-02
3.515652999999999793e+03,1.381069544460444831e-02,6.454430560383350723e-02
3.517581000000000131e+03,1.349098014266658652e-02,6.266230146773399401e-02
3.519510000000000218e+03,1.318165346177835318e-02,6.111729111080854704e-02
3.521438000000000102e+03,1.288303611390162473e-02,6.285121984472008538e-02
3.523367000000000189e+03,1.259481833000108963e-02,6.010106480412913399e-02
3.525295000000000073e+03,1.231729893618194183e-02,5.782039589851439843e-02
3.527224000000000160e+03,1.205019004926199955e-02,5.654140846894595285e-02
3.529152000000000044e+03,1.179376860950753780e-02,5.550510606722436346e-02
3.531081000000000131e+03,1.154776861957174106e-02,5.767988218073594187e-02
3.533009000000000015e+03,1.131244513387841266e-02,6.067154871528646076e-02
3.534938000000000102e+03,1.108755404092676145e-02,6.142869674540163416e-02
3.536865999999999985e+03,1.087332850929456640e-02,5.838193115380763132e-02
3.538795000000000073e+03,1.066954631332350800e-02,5.655803459112895837e-02
3.540722999999999956e+03,1.047641873575599902e-02,5.528963983697066098e-02
3.542652000000000044e+03,1.029374543676908615e-02,5.491978640079309137e-02
3.544579999999999927e+03,1.012171581325915781e-02,5.522007491855052130e-02
3.546509000000000015e+03,9.960151411259943188e-03,5.089886864885062590e-02
3.548436999999999898e+03,9.809219741811148197e-03,4.971234312951067214e-02
3.550365999999999985e+03,9.668764236792526390e-03,5.417760467353116560e-02
3.552293999999999869e+03,9.538930521404864749e-03,5.628723848677297248e-02
3.554222999999999956e+03,9.419583913370388473e-03,5.827210546944927572e-02
3.556150999999999840e+03,9.310848152047412896e-03,5.987626305225823842e-02
3.558079999999999927e+03,9.212610440993529437e-03,6.317992468167377140e-02
3.560007999999999811e+03,9.124972633731687210e-03,6.676934483324259428e-02
3.561936999999999898e+03,9.047843819665501996e-03,6.841878090948805280e-02
3.563864999999999782e+03,8.981303966461240407e-03,6.960819767609149888e-02
3.565793999999999869e+03,8.925284049375648010e-03,6.227727413892381048e-02
3.567722000000000207e+03,8.879842150236072484e-03,4.911414680621895013e-02
3.569650999999999840e+03,8.844931130138178332e-03,5.045820719375926355e-02
3.571579000000000178e+03,8.820587185056183444e-03,5.294078836537374766e-02
3.573507999999999811e+03,8.806785061938882109e-03,5.243596324308674728e-02
3.575436000000000149e+03,8.803539070921573284e-03,5.141348755939934012e-02
3.577364999999999782e+03,8.810845844791970194e-03,5.105250775833947152e-02
3.579293000000000120e+03,8.828697807832242006e-03,5.241929268633149785e-02
3.581222000000000207e+03,8.857113478683231733e-03,5.236920930037602950e-02
3.583150000000000091e+03,8.896063395788189609e-03,5.231558125368418466e-02
3.585079000000000178e+03,8.945587963619772154e-03,5.508984923495452435e-02
3.587007000000000062e+03,9.005635834785863381e-03,5.083395317758587773e-02
3.588936000000000149e+03,9.076269299605144170e-03,4.983195744254920179e-02
3.590864000000000033e+03,9.157415124828816033e-03,6.637623972943840212e-02
3.592793000000000120e+03,9.249157486632242353e-03,8.234272061499636752e-02
3.594721000000000004e+03,9.351401265920600281e-03,9.622384162217623160e-02
3.596650000000000091e+03,9.464252524708172132e-03,1.067152400313833294e-01
3.598577999999999975e+03,9.587594258054110696e-03,1.108272376424143113e-01
3.600507000000000062e+03,9.721554413825828078e-03,9.840838198094603584e-02
3.602434999999999945e+03,9.865994101236452707e-03,7.567954304841073565e-02
3.604364000000000033e+03,1.002106315398876291e-02,5.927753193932228104e-02
3.606291999999999916e+03,1.018660079546052089e-02,5.205915303133767935e-02
3.608221000000000004e+03,1.036277874519697662e-02,4.436637481599703392e-02
3.610148999999999887e+03,1.054941434073342066e-02,3.679489264186253106e-02
3.612077999999999975e+03,1.074670118745046921e-02,3.338938604257690734e-02
3.614005999999999858e+03,1.095443473704449389e-02,2.430173357217479957e-02
3.615934999999999945e+03,1.117283048074924068e-02,2.807404167973182041e-02
3.617862999999999829e+03,1.140166198440439871e-02,2.927912364500784292e-02
3.619791999999999916e+03,1.164116662508973832e-02,1.944326756796266320e-02
3.621719999999999800e+03,1.189109608280958241e-02,2.378235048180921130e-02
3.623648999999999887e+03,1.215170962048262027e-02,2.722761518555649740e-02
3.625577000000000226e+03,1.242273703226004500e-02,2.913244574540141407e-02
3.627505999999999858e+03,1.270445946691367567e-02,3.133202616948826957e-02
3.629434000000000196e+03,1.299658483275223375e-02,1.480484104269341739e-02
3.631362999999999829e+03,1.329941616439356267e-02,1.765815705151474457e-02
3.633291000000000167e+03,1.361263948429325410e-02,2.368413831678328751e-02
3.635219999999999800e+03,1.393657971291517583e-02,2.135418704461622408e-02
3.637148000000000138e+03,1.427090098687600062e-02,2.345678476135926172e-02
3.639077000000000226e+03,1.461595011248206788e-02,2.356046702598157960e-02
3.641005000000000109e+03,1.497136934050757873e-02,2.271228201896702270e-02
3.642934000000000196e+03,1.533752736309779152e-02,2.112259705152452760e-02
3.644862000000000080e+03,1.571404454518088301e-02,2.466269411421673219e-02
3.646791000000000167e+03,1.610131146475168862e-02,2.136146899236723851e-02
3.648719000000000051e+03,1.649892660089946617e-02,1.102116845746359264e-02
3.650648000000000138e+03,1.690730241745441731e-02,-6.729402995175881586e-05
3.652576000000000022e+03,1.732601550766332821e-02,8.765757750182734398e-03
3.654505000000000109e+03,1.775550022120242488e-02,2.100978949711740373e-02
3.656432999999999993e+03,1.819531126547602184e-02,1.510691841230415999e-02
3.658362000000000080e+03,1.864590487599571134e-02,1.528643593619438690e-02
3.660289999999999964e+03,1.910681387432688894e-02,2.201221876703751690e-02
3.662219000000000051e+03,1.957851638183427667e-02,2.125848648389583317e-02
3.664146999999999935e+03,2.006052333422658762e-02,2.103264784072289562e-02
3.666076000000000022e+03,2.055333473871456818e-02,2.229841615245764519e-02
3.668003999999999905e+03,2.105643964517156519e-02,2.141367987674092088e-02
3.669932999999999993e+03,2.157035994664369127e-02,8.282159798935428974e-03
3.671860999999999876e+03,2.209456280715826892e-02,3.982182841824943864e-03
3.673789999999999964e+03,2.262959200561809325e-02,1.719811471137366876e-02
3.675717999999999847e+03,2.317489282019380425e-02,3.261905655616015309e-04
3.677646999999999935e+03,2.373103091563422140e-02,-5.125802705666981929e-03
3.679574999999999818e+03,2.429742968427106575e-02,3.615130600904126190e-03
3.681503999999999905e+03,2.487467667669562843e-02,5.914098048963367660e-03
3.683431999999999789e+03,2.546217339939715885e-02,9.423896356666405794e-03
3.685360999999999876e+03,2.606052928880231434e-02,1.164094551374206254e-02
3.687289000000000215e+03,2.666912396556497811e-02,1.164778384180220616e-02
3.689217999999999847e+03,2.728858875195783185e-02,-5.636949694153847723e-03
3.691146000000000186e+03,2.791828138277807625e-02,-1.038979882179380532e-02
3.693074999999999818e+03,2.855885506615152281e-02,-1.783500344686550498e-03
3.695003000000000156e+03,2.920964565103645327e-02,6.089508609115945603e-03
3.696931999999999789e+03,2.987132823139759807e-02,7.638631927964989465e-03
3.698860000000000127e+03,3.054321677034010918e-02,9.660529647497417827e-03
