baseline wavenumber (cm-1),baseline absorbance (cm-1),baseline-subtracted absorbance (cm-1)
3199.379,0.104335388659,1.07691633389e-14
3201.308,0.102762285615,0.00333141700263
3203.236,0.101199843786,0.00608207272076
3205.165,0.0996464423798,0.0088272258705
3207.093,0.098103691974,0.00713283890637
3209.021,0.0965707847275,0.00540485461343
3210.95,0.0950469332232,0.00740480032576
3212.878,0.0935337174005,0.00970089293006
3214.807,0.0920295675334,0.0101724945307
3216.736,0.0905352710388,0.00918422759656
3218.664,0.0890515949045,0.00909002037906
3220.593,0.0875770000471,0.0106333507059
3222.521,0.0861130153366,0.0111183603836
3224.449,0.0846588737852,0.0101849551848
3226.378,0.0832138288296,0.00676848189511
3228.306,0.0817793787021,0.00379122677655
3230.235,0.0803540353837,0.00734231557153
3232.164,0.0789385454379,0.0100652956619
3234.092,0.0775336349987,0.0100368693983
3236.021,0.0761378466901,0.0100827133018
3237.949,0.0747526276747,0.0119662644713
3239.877,0.0733772518185,0.0153228391549
3241.806,0.0720110134117,0.0114960117576
3243.734,0.0706553289793,0.00816656528941
3245.663,0.0693087922096,0.0089303667917
3247.592,0.0679721088126,0.0129022467924
3249.52,0.0666459640685,0.0136901321611
3251.448,0.0653296624837,0.0128154906549
3253.377,0.0640225289884,0.0146952512602
3255.305,0.0627259188274,0.0141046684565
3257.234,0.0614384869693,0.013214297828
3259.162,0.0601615682321,0.0151416764864
3261.091,0.0588938380112,0.0145848843178
3263.02,0.0576359611629,0.0151730957461
3264.948,0.056388582114,0.0161505869955
3266.876,0.0551510462243,0.0169620640557
3268.805,0.0539227192778,0.0214027633867
3270.733,0.0527048748119,0.0222713710185
3272.662,0.0514962495025,0.0173741639211
3274.591,0.0502974775658,0.0142400742385
3276.519,0.0491091727883,0.0160975390281
3278.448,0.0479301024887,0.0200053063862
3280.376,0.046761489135,0.0207610015149
3282.304,0.0456027189405,0.0209862833844
3284.233,0.0444531985427,0.0203436274959
3286.161,0.043314119772,0.0187100387239
3288.09,0.0421843010114,0.0177899231875
3290.019,0.0410643356234,0.0213186624561
3291.947,0.039954796541,0.019710118045
3293.875,0.0388551006179,0.0218863327188
3295.804,0.0377646851317,0.0245278449401
3297.732,0.0366846806323,0.0246233149201
3299.661,0.0356139667833,0.0251704262219
3301.589,0.0345536537077,0.0233509252875
3303.518,0.0335026414958,0.0201979548854
3305.447,0.0324614826566,0.0200544376911
3307.375,0.0314307092694,0.0233504491254
3309.303,0.0304097790414,0.0248813358883
3311.232,0.0293981701039,0.0223055598061
3313.16,0.0283969312997,0.0220372140556
3315.089,0.0274050239994,0.0233455066788
3317.017,0.026423476619,0.0235224447395
3318.946,0.0254512709559,0.0241706839617
3320.875,0.0244889186654,0.0251921689724
3322.803,0.0235369109734,0.0234351905125
3324.731,0.0225947464405,0.0251197991978
3326.66,0.0216619440518,0.0282824610832
3328.588,0.0207394709428,0.0287050858145
3330.517,0.0198263701912,0.0279053593145
3332.445,0.018923588506,0.0289456119388
3334.374,0.0180301893916,0.0265503220812
3336.302,0.0171470991301,0.0270356563536
3338.231,0.0162734016529,0.0305086664761
3340.159,0.0154100028153,0.0301818297936
3342.088,0.0145560069752,0.0271199255023
3344.016,0.0137122995614,0.0295485919781
3345.945,0.0128780053585,0.0335361258453
3347.873,0.0120539893685,0.0356044559969
3349.802,0.0112393968028,0.0348381327635
3351.73,0.0104350722366,0.0346902689138
3353.659,0.00964018130808,0.0354260271221
3355.587,0.00885554816559,0.0369263178002
3357.516,0.00808035887431,0.03635307891
3359.444,0.00731541715561,0.0354350124411
3361.373,0.00655992950151,0.033959124375
3363.302,0.00581429522001,0.0338374787616
3365.23,0.00507889318969,0.0368613676008
3367.158,0.00435333431858,0.0368439769116
3369.087,0.00363724993884,0.0361499733504
3371.015,0.00293138249152,0.0414297819682
3372.944,0.00223499974897,0.0409470481637
3374.872,0.00154882372545,0.0373281600004
3376.801,0.000872142620079,0.0365184365773
3378.729,0.000205658020342,0.0399489967861
3380.658,-0.000451321447837,0.0405625111779
3382.586,-0.00109811462379,0.0422706608686
3384.515,-0.00173539245478,0.0427876516279
3386.443,-0.00236249420694,0.0407002077418
3388.372,-0.00298007040075,0.037927002575
3390.3,-0.00358748072912,0.0394643633734
3392.229,-0.00418535528574,0.0403993449754
3394.157,-0.00477307419032,0.0428742568447
3396.086,-0.00535124710976,0.0419488413683
3398.014,-0.00591927459055,0.0441680363413
3399.943,-0.0064777458728,0.0461264874072
3401.871,-0.0070260819298,0.0480722762086
3403.8,-0.00756485157487,0.0490477182483
3405.728,-0.00809349620808,0.0473490304242
3407.657,-0.00861256421596,0.0476472351954
3409.585,-0.00912151742538,0.0519902124623
3411.514,-0.00962088379608,0.0512649755781
3413.442,-0.0101101455817,0.0495162913413
3415.371,-0.0105898103152,0.0508637413776
3417.299,-0.0110593806771,0.0512807493215
3419.228,-0.0115193437734,0.0491004617356
3421.156,-0.0119692227114,0.0480593874744
3423.085,-0.0124094841706,0.0439120617507
3425.013,-0.0128396716848,0.0447000780327
3426.942,-0.0132602315068,0.0479256515007
3428.87,-0.0136707275973,0.0515904688284
3430.799,-0.014071585782,0.0550126552251
3432.727,-0.0144623904487,0.0583985068947
3434.656,-0.0148435469963,0.056303164908
3436.584,-0.0152146602392,0.0527492806779
3438.513,-0.0155761151496,0.0516046201531
3440.441,-0.0159275369687,0.0526545156405
3442.37,-0.0162692902419,0.0511474869466
3444.298,-0.0166010206372,0.0493004040396
3446.227,-0.0169230722732,0.0486545996158
3448.155,-0.0172351112447,0.0527440569639
3450.084,-0.0175374612436,0.0558933694615
3452.012,-0.0178298087913,0.0548554835108
3453.941,-0.018112457153,0.0545690426175
3455.869,-0.0183851132769,0.0571691019558
3457.798,-0.0186480600014,0.0595977213781
3459.726,-0.0189010247015,0.0584886118844
3461.655,-0.0191442697888,0.0544646983747
3463.583,-0.0193775430652,0.0537306209991
3465.512,-0.0196010865153,0.056529217517
3467.44,-0.0198146683679,0.0576818471812
3469.369,-0.0200185101808,0.0565271526553
3471.297,-0.0202124006096,0.0604969452371
3473.226,-0.0203965407853,0.0628876961477
3475.154,-0.0205707397903,0.0624215433888
3477.083,-0.0207351783288,0.0672690911965
3479.011,-0.02088968591,0.0679345661284
3480.94,-0.0210344228114,0.0629544672873
3482.868,-0.0211692389688,0.062924520481
3484.797,-0.021294274233,0.0672484842805
3486.725,-0.0214093989666,0.0682187591202
3488.654,-0.0215147325936,0.0649464519912
3490.582,-0.0216101659034,0.0672383878785
3492.511,-0.0216957978932,0.0711620871887
3494.439,-0.0217715397793,0.0720090814754
3496.368,-0.0218374701319,0.0703278168417
3498.296,-0.0218935205941,0.0728037601575
3500.225,-0.0219397493096,0.0736045628141
3502.153,-0.021976108348,0.0703446517626
3504.082,-0.0220026354263,0.070701715584
3506.01,-0.0220193030409,0.0784728560582
3507.939,-0.022026128482,0.0828656109444
3509.867,-0.0220231046729,0.0825340720235
3511.796,-0.0220102284768,0.0833156969899
3513.724,-0.0219875132439,0.0842087808068
3515.653,-0.0219549354106,0.0842590898632
3517.581,-0.0219125287538,0.0879824772022
3519.51,-0.0218602492834,0.0921397398322
3521.438,-0.0217981512029,0.0945920458759
3523.367,-0.0217261700952,0.0987301122766
3525.295,-0.0216443805909,0.0996803656308
3527.224,-0.0215526978461,0.0952628969768
3529.152,-0.021451216918,0.0959528847639
3531.081,-0.021339832536,0.0952870679549
3533.009,-0.0212186601841,0.0904393212575
3534.938,-0.0210875741649,0.0853784869315
3536.866,-0.0209467103892,0.0843556864328
3538.795,-0.0207959227328,0.0855406917614
3540.723,-0.0206353675333,0.0902345790971
3542.652,-0.0204648782397,0.089578392846
3544.58,-0.0202846316165,0.0790125200224
3546.509,-0.0200944406857,0.072578520338
3548.437,-0.0198945026387,0.076824149864
3550.366,-0.0196846100707,0.0787551650086
3552.294,-0.0194649805999,0.0774797385095
3554.223,-0.0192353863948,0.0842217403824
3556.151,-0.0189960655001,0.0941987340537
3558.08,-0.0187467696578,0.10407983344
3560.008,-0.0184877573394,0.114870047848
3561.937,-0.0182187598599,0.12658831409
3563.865,-0.0179400561177,0.129895984552
3565.794,-0.017651357001,0.118720294634
3567.722,-0.017352961835,0.112344875309
3569.651,-0.0170445610811,0.1291601984
3571.579,-0.0167264744913,0.144538563847
3573.508,-0.0163983721003,0.141230071282
3575.436,-0.0160605940867,0.121219292156
3577.365,-0.0157127900585,0.102253273228
3579.293,-0.0153553206211,0.0916789838173
3581.222,-0.0149878149557,0.0846279645564
3583.15,-0.0146106540945,0.0770709795772
3585.079,-0.0142234467919,0.0701483431833
3587.007,-0.0138265945069,0.0632842918687
3588.936,-0.0134196855672,0.0697868138397
3590.864,-0.0130031418584,0.0878257436981
3592.793,-0.0125765312814,0.107313213784
3594.721,-0.0121402961489,0.127869599697
3596.65,-0.0116939839347,0.146111248667
3598.578,-0.0112380573784,0.146971404189
3600.507,-0.0107720435271,0.121735350916
3602.435,-0.0102964255469,0.0907897036224
3604.364,-0.00981071005841,0.0704434807043
3606.292,-0.0093154006545,0.0562602101157
3608.221,-0.00880998352879,0.04271173224
3610.149,-0.00829498270109,0.0347070922735
3612.078,-0.00776986393819,0.0334127427414
3614.006,-0.00723517168671,0.030388916759
3615.935,-0.00669035128662,0.0287650505689
3617.863,-0.00613596761134,0.0213179144424
3619.792,-0.00557144557407,0.0142017902622
3621.72,-0.004997370475,0.0269098338329
3623.649,-0.00441314680054,0.0361982473767
3625.577,-0.00381938027769,0.0370630879498
3627.506,-0.00321545496604,0.0332942985928
3629.434,-0.00260199701939,0.0119864102409
3631.363,-0.00197837007057,0.0190914803506
3633.291,-0.00134522070013,0.0241664073978
3635.22,-0.000701892114119,0.0222949377019
3637.148,-4.90513198876e-05,0.030398288154
3639.077,0.000613978903306,0.0333256753977
3641.005,0.00128651112133,0.0327259219121
3642.934,0.00196924298171,0.0285538541577
3644.862,0.00266146662352,0.0237567078433
3646.791,0.00336390012108,0.0113778364603
3648.719,0.00407581518669,0.000520869337723
3650.648,0.00479795032144,-0.00443809992216
3652.576,0.00552955681083,0.0121076614243
3654.505,0.00627139358276,0.024105135276
3656.433,0.00702269149595,0.0181132632195
3658.362,0.00778422990507,0.0201163058273
3660.29,0.00855521924204,0.0272013763306
3662.219,0.00933645928834,0.0261163861579
3664.147,0.0101271400491,0.0245291826033
3666.076,0.0109280817326,0.0206457583564
3668.004,0.0117384539172,0.0130871803697
3669.933,0.0125590972378,0.00139420307553
3671.861,0.0133891608462,0.00246396762851
3673.79,0.014229505804,0.00549302527856
3675.718,0.0150792608362,-0.0150792608362
3677.647,0.0159393074312,-0.00764606978842
3679.575,0.0168087538871,0.00213999775545
3681.504,0.0176885021194,0.00525347705784
3683.432,0.0185776399991,0.00965343247641
3685.361,0.0194770898685,0.00955252703235
3687.289,0.020385919172,0.00177924811801
3689.218,0.0213050706786,-0.0166932239183
3691.146,0.0222335914059,-0.0104247366601
3693.075,0.0231724445497,0.00262407824422
3695.003,0.0241206567008,0.00917359175775
3696.932,0.0250792114817,0.0115315233813
3698.86,0.0260471150566,0.0105636198064
