baseline wavenumber (cm-1),baseline absorbance (cm-1),baseline-subtracted absorbance (cm-1)
3199.379,0.24528858789,2.0650148258e-14
3201.308,0.24330412483,0.00179695674294
3203.236,0.241330536234,0.00226038664126
3205.165,0.23936577481,0.00321281611271
3207.093,0.237411877638,0.00329720959583
3209.021,0.235467823624,0.00381955128738
3210.95,0.233532612103,0.00459636798433
3212.878,0.231608249513,0.00470328389445
3214.807,0.229692739629,0.00425348497464
3216.736,0.227787083117,0.00641134001063
3218.664,0.225892260216,0.00650034061326
3220.593,0.224006305341,0.006819531109
3222.521,0.222131173864,0.00762319791445
3224.449,0.220265885545,0.00903311374708
3226.378,0.218409480573,0.00947538751603
3228.306,0.216563883678,0.00974815513725
3230.235,0.214727180342,0.0102879818935
3232.164,0.212900330379,0.0120769262667
3234.092,0.211084273173,0.0128998570197
3236.021,0.209277124847,0.0135561916389
3237.949,0.207480759065,0.0130484029686
3239.877,0.205694236442,0.0135936438773
3241.806,0.203916638018,0.0139950166873
3243.734,0.202149806819,0.0139959528093
3245.663,0.200391910032,0.0136887530633
3247.592,0.198643866618,0.0154064720057
3249.52,0.196906575107,0.0163401650126
3251.448,0.195179126755,0.0176850196112
3253.377,0.193460633242,0.0169588552848
3255.305,0.191752876315,0.0174258359063
3257.234,0.190054084439,0.0187233339375
3259.162,0.188366018935,0.0199267132999
3261.091,0.186686928697,0.0203579515215
3263.02,0.185017691831,0.0211543490056
3264.948,0.183359166016,0.0212087102606
3266.876,0.181710483359,0.0222716252026
3268.805,0.180070796395,0.0231779653555
3270.733,0.178441805162,0.024071082738
3272.662,0.176821819836,0.0230659796183
3274.591,0.175211687882,0.0233842890715
3276.519,0.173612236337,0.0238627459732
3278.448,0.172021806021,0.0254678331181
3280.376,0.1704420459,0.0265634125048
3282.304,0.168872128939,0.0275288616607
3284.233,0.167311248524,0.0269710723092
3286.161,0.165761022986,0.0279183462649
3288.09,0.164219844208,0.0282116730262
3290.019,0.162688518803,0.0286078523686
3291.947,0.161167832954,0.028349502536
3293.875,0.159656990264,0.0300635191874
3295.804,0.15815521476,0.0312595229331
3297.732,0.156664063494,0.0318970403168
3299.661,0.155181989628,0.0329424417885
3301.589,0.153710529785,0.0342284169447
3303.518,0.152248157556,0.0342564416554
3305.447,0.1507956387,0.034730490887
3307.375,0.149353718546,0.0338652241412
3309.303,0.147921641551,0.0340454058565
3311.232,0.146498672596,0.0348366149811
3313.16,0.145086287025,0.0357976713295
3315.089,0.143683019707,0.0366515602987
3317.017,0.14229032556,0.0376990608748
3318.946,0.14090675988,0.038268414486
3320.875,0.139533047572,0.0392817709867
3322.803,0.138169893113,0.0388032191886
3324.731,0.136816581813,0.0395050597514
3326.66,0.135472419407,0.0395629591432
3328.588,0.134138799531,0.0396285106879
3330.517,0.132814338763,0.0397895225535
3332.445,0.13150041031,0.041165110765
3334.374,0.130195651179,0.041103247032
3336.302,0.128901414151,0.0406154159313
3338.231,0.127616356656,0.0408846036189
3340.159,0.126341811052,0.0425574106203
3342.088,0.125076455194,0.0431025602712
3344.016,0.123821601014,0.0437797332632
3345.945,0.122575946793,0.0441742806401
3347.873,0.121340784036,0.0455827982944
3349.802,0.120114831454,0.0460187983857
3351.73,0.11889936012,0.0469052491993
3353.659,0.117693109175,0.0463587456722
3355.587,0.116497329265,0.0460625615665
3357.516,0.115310779957,0.0464601691992
3359.444,0.114134691471,0.0476221062645
3361.373,0.1129678438,0.0469588720598
3363.302,0.111810849501,0.0478065567457
3365.23,0.110664300704,0.048115644712
3367.158,0.109527595066,0.0487231883162
3369.087,0.108400150669,0.0490733154182
3371.015,0.107283136455,0.0504293875521
3372.944,0.106175393695,0.0506112231048
3374.872,0.105078070905,0.0513365657072
3376.801,0.103990029782,0.0513354528826
3378.729,0.102912398415,0.0518808897682
3380.658,0.10184405893,0.0522836070966
3382.586,0.100786118987,0.0525465404691
3384.515,0.0997374811388,0.0514507327498
3386.443,0.0986992326198,0.0529438483465
3388.372,0.0976702964087,0.0538383460658
3390.3,0.0966517393135,0.0547856406521
3392.229,0.0956425047396,0.0531344082292
3394.157,0.0946436390682,0.0537547234104
3396.086,0.0936541061315,0.055224393818
3398.014,0.0926749318838,0.0562682602723
3399.943,0.0917051005843,0.0580548306802
3401.871,0.0907456177604,0.059219509097
3403.8,0.0897954880981,0.0589475625438
3405.728,0.088855696698,0.0598590511035
3407.657,0.0879252686729,0.0606171350469
3409.585,0.0870051686966,0.0617828632452
3411.514,0.0860944423086,0.0619850078076
3413.442,0.0851940337561,0.063101730926
3415.371,0.0843030090053,0.0642722462256
3417.299,0.0834222918767,0.0645843795072
3419.228,0.0825509687631,0.0628781225136
3421.156,0.0816899430581,0.0623396738427
3423.085,0.0808383215817,0.0644891827142
3425.013,0.0799969873006,0.0677680991241
3426.942,0.0791650674614,0.0690473049231
3428.87,0.0783434246041,0.070052916243
3430.799,0.077531206402,0.0698563403482
3432.727,0.0767292549685,0.0715852098046
3434.656,0.0759367384036,0.0730438539344
3436.584,0.0751544783939,0.0743254569139
3438.513,0.0743816634662,0.074847589541
3440.441,0.0736190948803,0.0752695132265
3442.37,0.0728659815898,0.0737225153272
3444.298,0.0721231044276,0.0746180256644
3446.227,0.0713896927743,0.0716685302116
3448.155,0.0706665070359,0.0712388806119
3450.084,0.0699527970198,0.0758978044155
3452.012,0.0692493027052,0.0781402656765
3453.941,0.0685552943263,0.0781989763702
3455.869,0.0678714914355,0.0778805554663
3457.798,0.0671971846938,0.0770416710628
3459.726,0.0665330732267,0.076719226379
3461.655,0.0658784681222,0.0754062786685
3463.583,0.065234048079,0.0763114891696
3465.512,0.0645991446116,0.077411367872
3467.44,0.0639744159922,0.0782089459809
3469.369,0.063359214162,0.0795878190939
3471.297,0.0627541769663,0.0807740753333
3473.226,0.0621586767733,0.0798932791551
3475.154,0.0615733310015,0.0779743289601
3477.083,0.0609975324457,0.0787371284257
3479.011,0.0604318780976,0.0795145486688
3480.94,0.059875781179,0.0758595872634
3482.868,0.0593298182547,0.0753598613167
3484.797,0.0587934229733,0.0777106708304
3486.725,0.0582671514728,0.0768839654786
3488.654,0.0577504578285,0.0757348348026
3490.582,0.0572438777518,0.0776883975944
3492.511,0.0567468857448,0.0775617162971
3494.439,0.0562599970919,0.0765409732912
3496.368,0.055782706722,0.0736547743252
3498.296,0.0553155094929,0.0746597255218
3500.225,0.0548579207602,0.0741494581947
3502.153,0.0544104149549,0.0686488188468
3504.082,0.0539725278593,0.0660011909317
3506.01,0.0535447134778,0.0716822146532
3507.939,0.0531265280195,0.0725320184275
3509.867,0.0527184050617,0.0703610450545
3511.796,0.0523199212406,0.0732425977122
3513.724,0.0519314897066,0.0749041516559
3515.653,0.0515527075227,0.0735054143817
3517.581,0.0511839674125,0.0714800374394
3519.51,0.0508248868657,0.0694753254056
3521.438,0.0504758381794,0.0667236968454
3523.367,0.0501364592698,0.0602001423678
3525.295,0.0498071020072,0.0605517375763
3527.224,0.0494874247348,0.0591383712826
3529.152,0.049177758896,0.0588016204631
3531.081,0.0488777832608,0.0632499838473
3533.009,0.0485878088458,0.0688821193863
3534.938,0.0483075348477,0.0691527906349
3536.866,0.0480372518565,0.0661844200327
3538.795,0.0477766794957,0.0669094622207
3540.723,0.0475260879283,0.0661694543744
3542.652,0.0472852172046,0.0603621091878
3544.58,0.047054317061,0.0530962944825
3546.509,0.0468331479745,0.0521989959657
3548.437,0.0466219392547,0.0601030177857
3550.366,0.0464204718053,0.0631024231709
3552.294,0.0462289545093,0.057936617107
3554.223,0.0460471886972,0.0613742203799
3556.151,0.0458753628249,0.0704164596758
3558.08,0.04571329865,0.0750023588856
3560.008,0.0455611642015,0.0758898617764
3561.937,0.0454188016638,0.0748920241727
3563.865,0.0452863586391,0.0712526083072
3565.794,0.0451636977385,0.0542616535199
3567.722,0.0450509461377,0.0417872222642
3569.651,0.0449479868743,0.0561143804561
3571.579,0.0448549266972,0.0638946942469
3573.508,0.044771669071,0.0605381459497
3575.436,0.0446983003177,0.0574997184834
3577.365,0.0446347443287,0.0589061431675
3579.293,0.0445810669992,0.0602708484966
3581.222,0.0445372126474,0.0601352830567
3583.15,0.0445032267417,0.0585110257601
3585.079,0.044479074027,0.0537636228294
3587.007,0.0444647795451,0.0393813743011
3588.936,0.0444603284676,0.0516601607672
3590.864,0.0444657254095,0.0775154734179
3592.793,0.0444809759692,0.0847720312076
3594.721,0.0445060643349,0.089806075562
3596.65,0.0445410165318,0.107648915744
3598.578,0.0445857963213,0.117989256747
3600.507,0.0446404501553,0.103631054949
3602.435,0.0447049213686,0.0796825243001
3604.364,0.0447792768399,0.063547317722
3606.292,0.0448634394769,0.0485268364758
3608.221,0.0449574965853,0.0346922557648
3610.149,0.0450613506462,0.0358311996419
3612.078,0.0451751093918,0.0302807685016
3614.006,0.0452986548764,0.0167356117767
3615.935,0.0454321152593,0.0186601722167
3617.863,0.0455753521677,0.0144307127267
3619.792,0.0457285141877,0.00858514193281
3621.72,0.0458914425199,0.0240120245781
3623.649,0.0460643061771,0.0326266874548
3625.577,0.0462469259331,0.0282198687702
3627.506,0.0464394912274,0.0117779352357
3629.434,0.0466418024072,-0.0140151977373
3631.363,0.0468540693388,0.0127881018934
3633.291,0.0470760719424,0.0229941797507
3635.22,0.0473080405111,0.0239403169133
3637.148,0.0475497345385,0.0301461110089
3639.077,0.0478014047444,0.031869574736
3641.005,0.0480627901956,0.0337314077221
3642.934,0.0483341620387,0.030093514096
3644.862,0.0486152389136,0.026289239
3646.791,0.0489063123939,-0.00110989068161
3648.719,0.0492070806927,-0.0383832658741
3650.648,0.0495178558102,-0.0333998936147
3652.576,0.0498383155327,0.00651112346459
3654.505,0.0501687922874,0.0208364639544
3656.433,0.0505089434337,0.00958455702119
3658.362,0.0508591218255,0.0182917929627
3660.29,0.0512189643956,0.029582107069
3662.219,0.0515888444247,0.031161585172
3664.147,0.0519683784186,0.0305101417472
3666.076,0.0523579600848,0.025455140087
3668.004,0.0527571855025,0.0147834998306
3669.933,0.0531664688059,-0.00719002081237
3671.861,0.0535853856474,0.00352418677757
3673.79,0.054014370588,0.0058041879888
3675.718,0.0544529788532,-0.0398926836951
3677.647,0.054901665431,-0.0228239337015
3679.575,0.0553599651201,0.000307678668451
3681.504,0.0558283533351,0.0168321136618
3683.432,0.0563063444479,0.021488055633
3685.361,0.0567944343001,0.0138125605448
3687.289,0.0572921168367,-0.000159801057862
3689.218,0.057799908326,-0.029217577385
3691.146,0.0583172822865,-0.0206578261053
3693.075,0.058844775413,0.00213925369852
3695.003,0.0593818407972,0.0112660920846
3696.932,0.0599290355609,0.00841322664469
3698.86,0.0604857923689,0.00785646983668
