baseline wavenumber (cm-1),baseline absorbance (cm-1),baseline-subtracted absorbance (cm-1)
3199.379,0.186956398464,1.67366120962e-14
3201.308,0.18507653915,0.000362912987947
3203.236,0.183207500074,0.000248918606364
3205.165,0.181347342397,0.000488036153408
3207.093,0.179497994744,0.00100943475115
3209.021,0.177658490251,0.000834570498988
3210.95,0.175827882476,0.000765289463383
3212.878,0.174008069407,0.0017436560557
3214.807,0.172197163269,0.00211944544396
3216.736,0.170396110504,0.00228574990196
3218.664,0.168605837123,0.00231675713543
3220.593,0.166824485995,0.00378790407834
3222.521,0.165053904038,0.0048163835391
3224.449,0.16329316524,0.0056960973702
3226.378,0.161541364014,0.0063901653504
3228.306,0.159800316639,0.00735575381452
3230.235,0.158068217051,0.00775287867366
3232.164,0.156345970834,0.00824429501008
3234.092,0.154634463148,0.0085484843903
3236.021,0.152931918569,0.00942854842746
3237.949,0.151240102307,0.00910341836407
3239.877,0.149558129204,0.00951383582176
3241.806,0.147885134527,0.0106683578415
3243.734,0.146222852848,0.0111143603335
3245.663,0.144569559808,0.0119124325103
3247.592,0.14292612014,0.012479540428
3249.52,0.141293378149,0.0128371029991
3251.448,0.139670479317,0.0142935356426
3253.377,0.138056589552,0.0141688981667
3255.305,0.136453382144,0.0142633721268
3257.234,0.134859194015,0.0143175319524
3259.162,0.133275678031,0.0153895499076
3261.091,0.13170119154,0.0159042870812
3263.02,0.130136558421,0.016003247502
3264.948,0.128582582126,0.0163633543951
3266.876,0.127038448989,0.0178743984788
3268.805,0.125503365772,0.018287713779
3270.733,0.123978924059,0.0192531390155
3272.662,0.12246354248,0.0194917996814
3274.591,0.120958014273,0.0196538122714
3276.519,0.119463112248,0.0201436804335
3278.448,0.117977285678,0.0208945125629
3280.376,0.116502075078,0.020855293769
3282.304,0.115036707636,0.0212523502835
3284.233,0.113580430968,0.0208335385052
3286.161,0.112134754951,0.0215624147654
3288.09,0.11069817992,0.0225898267518
3290.019,0.109271458261,0.024093077269
3291.947,0.107855321932,0.0241676539096
3293.875,0.106449028762,0.0251259586029
3295.804,0.105051857005,0.0261796349587
3297.732,0.103665255259,0.0265096057537
3299.661,0.10228778514,0.0264080351373
3301.589,0.100920874817,0.027496430348
3303.518,0.099563106335,0.027957974227
3305.447,0.0982151912254,0.0284720522801
3307.375,0.0968778205913,0.0285583565036
3309.303,0.0955502931164,0.0287610735064
3311.232,0.0942319279086,0.0285979518044
3313.16,0.0929240918575,0.0301315030075
3315.089,0.0916254282868,0.0309137408226
3317.017,0.0903372836596,0.0309842770399
3318.946,0.0890583217261,0.0302820199297
3320.875,0.0877892131652,0.0311393727036
3322.803,0.0865306082263,0.0311714538378
3324.731,0.0852818464466,0.031465297999
3326.66,0.0840422877874,0.0322026328635
3328.588,0.0828132174315,0.0330251531335
3330.517,0.0815933604096,0.0325750414907
3332.445,0.0803839814775,0.0327653160056
3334.374,0.0791838260927,0.0317931778495
3336.302,0.0779941385844,0.0324414219129
3338.231,0.0768136848368,0.0329578202678
3340.159,0.0756436887523,0.0333433222656
3342.088,0.0744829366419,0.0334335194382
3344.016,0.0733326319812,0.034775474761
3345.945,0.072191581508,0.0358189309756
3347.873,0.071060968271,0.0356886021323
3349.802,0.069939619435,0.0365002370292
3351.73,0.0688286976218,0.0375643075333
3353.659,0.067727050423,0.0365641655883
3355.587,0.0666358200336,0.0356798577183
3357.516,0.065553874472,0.0355501890073
3359.444,0.0644823355064,0.0368016026317
3361.373,0.0634200915819,0.037191148689
3363.302,0.0623677010301,0.0375310657748
3365.23,0.0613257017528,0.0370541627978
3367.158,0.0602935456348,0.0374678513125
3369.087,0.0592707049848,0.0384097256227
3371.015,0.0582582402905,0.0393875193375
3372.944,0.0572551012776,0.0388173742101
3374.872,0.0562623280072,0.0391570088977
3376.801,0.0552788906315,0.0396799691684
3378.729,0.0543058087849,0.0398258499637
3380.658,0.0533420730463,0.0395724624839
3382.586,0.0523886826235,0.0399424606091
3384.515,0.0514446485221,0.0392131903538
3386.443,0.0505109495231,0.0397400360223
3388.372,0.0495866170589,0.0407645908659
3390.3,0.0486726094836,0.0414457570381
3392.229,0.0477679786567,0.0411897692459
3394.157,0.0468736625052,0.0419800724589
3396.086,0.0459887333154,0.0415605439514
3398.014,0.0451141085877,0.0412437201801
3399.943,0.0442488810351,0.0420255048943
3401.871,0.0433939477312,0.0424945087532
3403.8,0.0425484218158,0.0424574914562
3405.728,0.0417131799357,0.0432718094507
3407.657,0.0408873556574,0.0435755979461
3409.585,0.0400718052011,0.0441332893101
3411.514,0.0392656825601,0.0433033561542
3413.442,0.0384698235276,0.0428985682646
3415.371,0.0376834025237,0.0425248760571
3417.299,0.036907234915,0.0421290028289
3419.228,0.0361405155483,0.0407392479208
3421.156,0.0353840393633,0.0402979074678
3423.085,0.0346370216338,0.0404380819748
3425.013,0.0339002368727,0.0413596438511
3426.942,0.0331729207804,0.0411253204003
3428.87,0.032455827443,0.0417485594972
3430.799,0.0317482129879,0.0427006397363
3432.727,0.0310508110743,0.0430696276197
3434.656,0.0303628982564,0.0418505860255
3436.584,0.0296851877666,0.0406249304988
3438.513,0.0290169765858,0.0407042404363
3440.441,0.0283589575198,0.0410155497075
3442.37,0.0277104479763,0.0399976284414
3444.298,0.0270721203341,0.0411033572764
3446.227,0.0264433124277,0.0402650672347
3448.155,0.0258246762093,0.0402257129548
3450.084,0.0252155699401,0.0419261464251
3452.012,0.0246166251454,0.0429456411034
3453.941,0.0240272205134,0.0428598208289
3455.869,0.0234479671426,0.0428541656786
3457.798,0.0228782641478,0.0429250816523
3459.726,0.0223187022007,0.0435470614706
3461.655,0.0217687008431,0.042673783742
3463.583,0.0212288303198,0.0429584738346
3465.512,0.0206985305994,0.0431595003316
3467.44,0.0201783514999,0.0432515989701
3469.369,0.0196677534166,0.0431161341807
3471.297,0.019167265741,0.0439529707899
3473.226,0.0186763692949,0.0431709469894
3475.154,0.018195573043,0.0430977656814
3477.083,0.0177243782341,0.0440266073113
3479.011,0.017263273406,0.0450617038507
3480.94,0.0168117802343,0.0437140461076
3482.868,0.01637036683,0.0440679228698
3484.797,0.0159385752954,0.045950336056
3486.725,0.0155168533149,0.0455428858946
3488.654,0.0151047634176,0.0444953578803
3490.582,0.0147027328609,0.0465539637933
3492.511,0.0143103446007,0.0471360821657
3494.439,0.0139280054678,0.0475561752661
3496.368,0.0135553188448,0.0475028030596
3498.296,0.0131926711356,0.048002871167
3500.225,0.0128396861498,0.0477036778449
3502.153,0.0124967298645,0.0454370111645
3504.082,0.0121634465159,0.0449961612876
3506.01,0.0118401816543,0.0479297061451
3507.939,0.0115265999429,0.0488387594021
3509.867,0.0112230265051,0.0516582531876
3511.796,0.0109291464309,0.0539155922733
3513.724,0.0106452644169,0.0531398867
3515.653,0.0103710859798,0.0522259017893
3517.581,0.0101068953897,0.0514072054897
3519.51,0.00985241858979,0.0498342285344
3521.438,0.00960791942341,0.0482123069993
3523.367,0.0093731442607,0.0462503268805
3525.295,0.00914833651812,0.047037400872
3527.224,0.0089332629926,0.0442919467517
3529.152,0.0087281466738,0.0448233038468
3531.081,0.00853277478546,0.0491090426612
3533.009,0.00834734989046,0.051696317349
3534.938,0.00817167963931,0.0504504269007
3536.866,0.00800594616809,0.0501384993995
3538.795,0.00784997755412,0.0512608078497
3540.723,0.0077039355067,0.051868792685
3542.652,0.00756766852992,0.0477575108899
3544.58,0.00744131790628,0.0429517377897
3546.509,0.00732475256669,0.0431584678922
3548.437,0.00721809336684,0.0478578694351
3550.366,0.00712122966443,0.0480447968189
3552.294,0.00703426188837,0.0464343522833
3554.223,0.00695709982315,0.0509043173405
3556.151,0.00688982347089,0.0566502553727
3558.08,0.00683236304284,0.0611402438509
3560.008,0.00678477811437,0.0656243495517
3561.937,0.00674701932351,0.0688106982546
3563.865,0.00671912581883,0.0689397238729
3565.794,0.00670106866516,0.0606016706455
3567.722,0.00669286658427,0.0545907683091
3569.651,0.00669451106778,0.0572119884774
3571.579,0.00670600041068,0.0574048860747
3573.508,0.00672734653137,0.0541338179283
3575.436,0.00675852729806,0.0513126341292
3577.365,0.00679957505595,0.0503692817115
3579.293,0.00685044724643,0.0509540104509
3581.222,0.00691119664149,0.0517661004373
3583.15,0.00698176025576,0.0520084348317
3585.079,0.00706221128801,0.0496135695671
3587.007,0.00715246632608,0.0466486556794
3588.936,0.00725261899551,0.0587165511248
3590.864,0.00736256545736,0.073252819158
3592.793,0.00748241976398,0.0824037118442
3594.721,0.00761205764963,0.0968971407735
3596.65,0.00775161359343,0.115655699658
3598.578,0.00790094290286,0.123688514289
3600.507,0.00806020048385,0.10875946999
3602.435,0.00822922121708,0.082151502527
3604.364,0.00840818043525,0.0612113990654
3606.292,0.00859689259227,0.0447834773663
3608.221,0.00879555344762,0.0343818952535
3610.149,0.00900395702843,0.0337238302959
3612.078,0.00922231952097,0.0260526223571
3614.006,0.00945041452557,0.0201260536843
3615.935,0.0096884786553,0.0205169696415
3617.863,0.00993626508368,0.0170975972432
3619.792,0.0101940308506,0.0186871477605
3621.72,0.0104615087028,0.0292000196506
3623.649,0.0107389761069,0.0329896198701
3625.577,0.0110261453828,0.0305925243837
3627.506,0.0113233144241,0.019278171475
3629.434,0.0116301751239,0.0111138863337
3631.363,0.0119470458023,0.0221072350023
3633.291,0.0122735979259,0.0224307384736
3635.22,0.0126101702415,0.0227661059133
3637.148,0.0129564137889,0.0239366924478
3639.077,0.0133126877417,0.0245828444528
3641.005,0.0136786227128,0.0266631846257
3642.934,0.0140545983029,0.025495133831
3644.862,0.0144402246978,0.0208537710568
3646.791,0.014835901925,0.00505998405499
3648.719,0.0152412197437,-0.0107293931997
3650.648,0.0156565986081,-0.00325429394824
3652.576,0.0160816078506,0.0149082839921
3654.505,0.0165166883522,0.0158967858215
3656.433,0.0169613890185,0.0127642250521
3658.362,0.0174161711572,0.0179265964562
3660.29,0.0178805632473,0.0215562607697
3662.219,0.0183550470233,0.0217738319821
3664.147,0.0188391305371,0.020962294713
3666.076,0.0193333159503,0.0167324376129
3668.004,0.0198370908879,0.00830588899685
3669.933,0.0203509779382,-0.00195241329657
3671.861,0.0208744442997,0.00742005686275
3673.79,0.0214080329872,-0.000263183093321
3675.718,0.0219511907724,-0.021046662318
3677.647,0.0225044810971,-0.00793958672736
3679.575,0.0230673303062,0.00303769344801
3681.504,0.023640322268,0.011393994926
3683.432,0.0242228629008,0.0136515432449
3685.361,0.0248155564999,0.0100103810317
3687.289,0.0254177885565,0.00162608084609
3689.218,0.0260301837928,-0.010339645028
3691.146,0.0266521072732,-0.00414952969305
3693.075,0.0272842041466,0.00632117339309
3695.003,0.0279258190508,0.00675602669874
3696.932,0.0285776175614,0.00484520665776
3698.86,0.0292389238894,0.00418390032977
