baseline wavenumber (cm-1),baseline absorbance (cm-1),baseline-subtracted absorbance (cm-1)
3199.379,0.172535681834,1.3211653993e-14
3201.308,0.171075379809,-0.00174036897516
3203.236,0.169622867461,-0.001179692791
3205.165,0.168176638034,0.000987127954983
3207.093,0.166738190988,0.000970762670916
3209.021,0.165306774771,-0.000591845015909
3210.95,0.163881652416,-0.000960390097071
3212.878,0.162464301501,0.0010322386538
3214.807,0.161053251745,0.00303824192943
3216.736,0.159649240112,0.00292890345417
3218.664,0.158252988974,0.00214824818217
3220.593,0.156863049939,0.0023594984635
3222.521,0.155480864105,0.0019529445205
3224.449,0.154105709098,0.00139981267464
3226.378,0.152736877136,0.00254532737976
3228.306,0.151375787431,0.00307378270899
3230.235,0.150021028067,0.0012832285905
3232.164,0.148673306826,0.00113867332362
3234.092,0.147333316899,0.00145220766905
3236.021,0.145999668256,0.0021178965722
3237.949,0.144673743632,0.00277809812348
3239.877,0.143354849836,0.00330500198438
3241.806,0.142042308266,0.00363438845592
3243.734,0.140737479773,0.00534443816949
3245.663,0.1394390108,0.00510055025371
3247.592,0.138147579951,0.00663050070867
3249.52,0.136863851235,0.00801435523699
3251.448,0.135587153348,0.00900136975298
3253.377,0.134316829571,0.00928287686629
3255.305,0.133054196986,0.00712756718533
3257.234,0.131797945808,0.00390653451676
3259.162,0.130549378525,0.00481911242329
3261.091,0.129307199945,0.00527608096674
3263.02,0.128072059487,0.00521119346562
3264.948,0.126844591983,0.00373575330299
3266.876,0.125624155306,0.00384393723652
3268.805,0.124410121921,0.00364359304363
3270.733,0.123203750547,0.00671160557255
3272.662,0.12200378976,0.00894116725375
3274.591,0.120810867097,0.00744222579454
3276.519,0.1196255955,0.00788820893117
3278.448,0.118446745435,0.00933769574767
3280.376,0.117275539141,0.00935848616145
3282.304,0.116111363675,0.00964990703191
3284.233,0.114953620682,0.0112942300203
3286.161,0.113803510519,0.0125342961493
3288.09,0.112659840124,0.00812505538151
3290.019,0.111523207853,0.00765209095189
3291.947,0.110394197467,0.0123981069994
3293.875,0.109272217909,0.0141933583824
3295.804,0.10815669271,0.0135597048573
3297.732,0.107048778455,0.0123153090546
3299.661,0.105947325854,0.0112720073391
3301.589,0.104853476902,0.0123035441368
3303.518,0.103766096899,0.0128078179676
3305.447,0.10268575502,0.0123140352926
3307.375,0.101613005845,0.013895835981
3309.303,0.100547287498,0.0153992072253
3311.232,0.0994880526909,0.0149718620361
3313.16,0.0984363996465,0.0129779779309
3315.089,0.0973912374378,0.0138086996559
3317.017,0.0963536496961,0.0152234454322
3318.946,0.0953225600854,0.0164202930634
3320.875,0.094298508598,0.0181964589004
3322.803,0.0932820206337,0.0194122548958
3324.731,0.0922725634974,0.0164372638599
3326.66,0.0912696190827,0.0161974949175
3328.588,0.090274227249,0.018829043877
3330.517,0.0892853554323,0.0195164199224
3332.445,0.0883040289014,0.0184904423364
3334.374,0.0873292296827,0.0191556378646
3336.302,0.0863619684545,0.0172251916769
3338.231,0.0854012418338,0.0163053004182
3340.159,0.0844480459083,0.0205097369952
3342.088,0.0835013918856,0.0229981188434
3344.016,0.0825622612628,0.0233468391776
3345.945,0.081629679838,0.0239581093561
3347.873,0.0807046145179,0.0238350513799
3349.802,0.0797861056912,0.0211950923238
3351.73,0.0788751056738,0.0203993054536
3353.659,0.0779706694451,0.0222485938526
3355.587,0.0770737347304,0.0221137609011
3357.516,0.0761833710996,0.0219677087914
3359.444,0.0753005016876,0.0238022102715
3361.373,0.0744242106549,0.0232388563753
3363.302,0.0735549577454,0.0214551771536
3365.23,0.0726931881108,0.022603694534
3367.158,0.0718384493043,0.0240336412808
3369.087,0.0709903034675,0.0250969964557
3371.015,0.0701496299636,0.0266008418334
3372.944,0.0693155567248,0.0256173083063
3374.872,0.0684889485237,0.02586545841
3376.801,0.0676689478828,0.0283042121088
3378.729,0.0668564049844,0.0278088637651
3380.658,0.0660504769416,0.0271749371914
3382.586,0.0652519993459,0.0275261512098
3384.515,0.064460143901,0.0266786692674
3386.443,0.063675731608,0.0279906205273
3388.372,0.0628979487611,0.027132875311
3390.3,0.0621276017708,0.0277415182404
3392.229,0.061363891522,0.0283796605854
3394.157,0.0606076098344,0.0274736440973
3396.086,0.0598579721835,0.0280336193451
3398.014,0.0591157557986,0.0309416636464
3399.943,0.0583801907457,0.0334228427344
3401.871,0.0576520396635,0.0354319052585
3403.8,0.0569305472086,0.0328257958402
3405.728,0.0562164614291,0.0321699578062
3407.657,0.0555090415722,0.0344268289806
3409.585,0.0548090210955,0.0352879594036
3411.514,0.0541156738365,0.0356135845684
3413.442,0.0534297186625,0.0374752229745
3415.371,0.0527504440015,0.0375966937632
3417.299,0.0520785541302,0.0362033358537
3419.228,0.0514133520672,0.0348160461294
3421.156,0.0507555274986,0.0357493302633
3423.085,0.0501043980336,0.0377036330001
3425.013,0.0494606387677,0.0418266331971
3426.942,0.0488235819007,0.0438716372228
3428.87,0.0481938879375,0.0432775246577
3430.799,0.0475709036685,0.0398140827018
3432.727,0.046955275008,0.0382668889677
3434.656,0.046346363337,0.0395929670607
3436.584,0.0457447999792,0.0408639230235
3438.513,0.0451499609062,0.0417004270158
3440.441,0.0445624628511,0.0440202938414
3442.37,0.0439816963761,0.0426785748198
3444.298,0.0434082636237,0.0411145224251
3446.227,0.0428415697467,0.0408052464971
3448.155,0.042282202297,0.0406054051679
3450.084,0.0417295810179,0.0416054997118
3452.012,0.041184278871,0.0424315385611
3453.941,0.0406457301899,0.0448500760588
3455.869,0.0401144933456,0.0472169178517
3457.798,0.0395900172626,0.0462030910061
3459.726,0.039072845721,0.0461855592556
3461.655,0.0385624422359,0.0454423106822
3463.583,0.0380593359971,0.0457091339826
3465.512,0.03756300511,0.0459835455295
3467.44,0.0370739641739,0.0457703428087
3469.369,0.0365917058848,0.0457286617674
3471.297,0.0361167302513,0.0447588900744
3473.226,0.0356485445602,0.0445496101892
3475.154,0.0351876342295,0.0448223608778
3477.083,0.0347335211364,0.0444884680997
3479.011,0.0342866761083,0.0463853725392
3480.94,0.0338466356132,0.0448438305921
3482.868,0.0334138558879,0.0405920852598
3484.797,0.0329878879908,0.043070125569
3486.725,0.0325691735682,0.04609291492
3488.654,0.032157278269,0.0431633689666
3490.582,0.0317526291491,0.0421458820692
3492.511,0.0313548064479,0.0413056744355
3494.439,0.0309642226308,0.0411301018258
3496.368,0.0305804725276,0.041575639865
3498.296,0.0302039540131,0.0431320353627
3500.225,0.0298342765079,0.0423992804922
3502.153,0.0294718232961,0.0408593432657
3504.082,0.0291162183889,0.0372581088635
3506.01,0.0287678304799,0.0395427867005
3507.939,0.0284262981707,0.0423013176817
3509.867,0.0280919755643,0.0427947232545
3511.796,0.0277645158531,0.0406286832802
3513.724,0.0274442585494,0.0370635348384
3515.653,0.0271308714362,0.0361411632321
3517.581,0.0268246794353,0.035793898883
3519.51,0.02652536492,0.0351218706989
3521.438,0.0262332382218,0.035435315633
3523.367,0.0259479963045,0.0326781657141
3525.295,0.025669934909,0.032615275128
3527.224,0.0253987655897,0.0318352107855
3529.152,0.0251347694969,0.0288568779484
3531.081,0.0248776727756,0.0306488527014
3533.009,0.0246277419855,0.0336203883003
3534.938,0.0243847178622,0.0340226002338
3536.866,0.0241488523748,0.030794287347
3538.795,0.0239199008495,0.0301428306805
3540.723,0.0236981006648,0.0298699778981
3542.652,0.0234832217375,0.0322384180192
3544.58,0.0232754868555,0.0318870909036
3546.509,0.0230746805262,0.0244181202007
3548.437,0.0228810109469,0.0240917646175
3550.366,0.0226942772156,0.0292433407336
3552.294,0.022514672939,0.0302417749536
3554.223,0.0223420118057,0.03366969575
3556.151,0.0221764728318,0.0353721047875
3558.08,0.0220178842965,0.038882444214
3560.008,0.0218664106253,0.0428464572016
3561.937,0.021721894688,0.046658897931
3563.865,0.0215844863195,0.0489111801375
3565.794,0.0214540429801,0.0408299788274
3567.722,0.0213306999144,0.0272730954306
3569.651,0.021214329173,0.0272201085148
3571.579,0.02110505141,0.0302742035002
3573.508,0.0210027532666,0.0318088424558
3575.436,0.0209075408062,0.0312591957563
3577.365,0.0208193152608,0.0293644409424
3579.293,0.0207381681032,0.0305284845843
3581.222,0.0206640151558,0.03144516217
3583.15,0.0205969333009,0.0335640368536
3585.079,0.0205368529515,0.0364891133587
3587.007,0.0204838363992,0.0323070002541
3588.936,0.0204378286478,0.0307380293238
3590.864,0.0203988773983,0.0440407675308
3592.793,0.0203669422449,0.0594018772141
3594.721,0.0203420562981,0.0765233242849
3596.65,0.0203241937426,0.0872246984081
3598.578,0.0203133730985,0.091175758096
3600.507,0.0203095831411,0.0786593132034
3602.435,0.0203128277997,0.0555345895485
3604.364,0.0203231104402,0.0399926440856
3606.292,0.0203404204015,0.0311205078154
3608.221,0.02036477564,0.0234595760759
3610.149,0.0203961509041,0.0174490647247
3612.078,0.0204345787406,0.0176063103347
3614.006,0.0204800193073,0.00981011838753
3615.935,0.0205325197418,0.0129708003113
3617.863,0.0205920256112,0.0144898224352
3619.792,0.0206585986437,0.0046020080523
3621.72,0.0207321698159,0.00940426689343
3623.649,0.0208128154463,0.0130541727413
3625.577,0.0209004519212,0.0138002540269
3627.506,0.0209951701497,0.0185241560543
3629.434,0.0210968719272,0.00121839332754
3631.363,0.0212056627537,-0.000322249040116
3633.291,0.021321429834,0.00480822697739
3635.22,0.0214442932584,0.00556189252479
3637.148,0.0215741256414,0.00953651949736
3639.077,0.0217110616638,0.00946776688166
3641.005,0.0218549593495,0.00969396774912
3642.934,0.0220059679699,0.00938667199654
3644.862,0.0221639309583,0.0144726105948
3646.791,0.0223290121767,0.0118088224497
3648.719,0.0225010404678,0.00249972838658
3650.648,0.0226801942842,-0.00678916192244
3652.576,0.022866287878,-0.00381358640323
3654.505,0.0230595142924,0.00985951135936
3656.433,0.0232596731889,0.00681266902117
3658.362,0.0234669722013,0.00662550001509
3660.29,0.0236811964005,0.0115234237155
3662.219,0.0239025680109,0.0108450380561
3664.147,0.0241308575128,0.0134851346588
3666.076,0.0243663017212,0.0160610764853
3668.004,0.0246086565258,0.0134548089107
3669.933,0.0248581733322,-0.00324095798304
3671.861,0.0251145934395,-0.00548825668129
3673.79,0.0253781828438,0.0115986466802
3675.718,0.0256486682539,-0.00759928683223
3677.647,0.0259263302562,-0.0114651224558
3679.575,0.026210880969,-0.00252160299317
3681.504,0.0265026155693,0.000587515135952
3683.432,0.0268012315848,0.00637724748142
3685.361,0.0271070387831,0.00930258587619
3687.289,0.0274197201012,0.0134965097163
3689.218,0.0277395998975,-0.00173061828014
3691.146,0.0280663465184,-0.0115976948095
3693.075,0.0284002989127,-0.00498966076354
3695.003,0.0287411108363,0.00453648055254
3696.932,0.0290891358286,0.00733750847143
3698.86,0.0294440130549,0.00698263124513
