baseline wavenumber (cm-1),baseline absorbance (cm-1),baseline-subtracted absorbance (cm-1)
3199.379,0.194997776205,1.79578574233e-14
3201.308,0.193129675688,0.000462409625144
3203.236,0.191272389311,0.00153964950389
3205.165,0.189423990431,0.00121519889484
3207.093,0.187586395478,0.00231727378263
3209.021,0.185758643685,0.00233884949181
3210.95,0.183939794706,0.00391186808541
3212.878,0.182131734337,0.00452585183506
3214.807,0.180332586995,0.00478471816983
3216.736,0.178543293027,0.00383111311925
3218.664,0.176764772345,0.00455267433407
3220.593,0.174995180014,0.00445175216062
3222.521,0.173236350756,0.0059592420871
3224.449,0.171487364658,0.00643813822261
3226.378,0.169747322228,0.00794351978127
3228.306,0.168018027554,0.00801770478208
3230.235,0.166297686761,0.00915905032572
3232.164,0.164587199341,0.00923580682506
3234.092,0.162887444355,0.0104423848172
3236.021,0.161196658572,0.0112780204941
3237.949,0.15951659501,0.0124053194752
3239.877,0.157846374607,0.0119138093616
3241.806,0.156185138726,0.0124144771644
3243.734,0.154534609746,0.0121021536216
3245.663,0.152893075502,0.0131825840549
3247.592,0.151261394631,0.0137229377253
3249.52,0.14964040534,0.0149948418043
3251.448,0.148029259209,0.0149552753108
3253.377,0.146427128239,0.0156766825364
3255.305,0.144835673531,0.0156430487978
3257.234,0.143253244199,0.0164782326032
3259.162,0.141681480915,0.0165105740738
3261.091,0.140118753219,0.0183584528861
3263.02,0.138565878897,0.0185488992294
3264.948,0.137023655301,0.0190997147587
3266.876,0.135491274865,0.0191242108325
3268.805,0.133967950444,0.020692819798
3270.733,0.132455261431,0.0205430201823
3272.662,0.130951638647,0.0208944646582
3274.591,0.129457869236,0.0200217122863
3276.519,0.127974719912,0.0210188614084
3278.448,0.126500652138,0.0205686898212
3280.376,0.125037194237,0.0222339570818
3282.304,0.123583579496,0.022845410699
3284.233,0.122139061624,0.0238296030886
3286.161,0.120705138306,0.024096236403
3288.09,0.119280322071,0.0251684295712
3290.019,0.117865359209,0.0245728294093
3291.947,0.11646097558,0.0248579873232
3293.875,0.11506643511,0.0246150063133
3295.804,0.113681022149,0.0262694984208
3297.732,0.112306173103,0.0262486131093
3299.661,0.11094046178,0.0277811595687
3301.589,0.109585304157,0.0280583327576
3303.518,0.108239294471,0.0288438451225
3305.447,0.106903138157,0.0281609981005
3307.375,0.105577520224,0.0295436260415
3309.303,0.104261745449,0.029316390607
3311.232,0.102955139037,0.0297404538065
3313.16,0.101659055686,0.0292580068835
3315.089,0.100372150911,0.0304545447322
3317.017,0.0990957589841,0.0305609679946
3318.946,0.0978285558465,0.0309483571222
3320.875,0.0965712060816,0.0304539126893
3322.803,0.0953243538428,0.032531099508
3324.731,0.0940873447633,0.0334972605132
3326.66,0.0928595449001,0.0344070072075
3328.588,0.0916422272443,0.0332774634461
3330.517,0.0904341290183,0.0332541354111
3332.445,0.0892365027863,0.03288858566
3334.374,0.0880481061975,0.0339555832799
3336.302,0.0868701713893,0.033447780698
3338.231,0.0857014764377,0.0344100670779
3340.159,0.0845432330533,0.0344862322252
3342.088,0.0833942397389,0.0357660250948
3344.016,0.0822556877783,0.0357767088658
3345.945,0.081126396101,0.0367270861592
3347.873,0.0800075355642,0.0365077277533
3349.802,0.0788979455241,0.0382682831224
3351.73,0.0777987764111,0.0383878201723
3353.659,0.0767088880082,0.0383756161867
3355.587,0.075629410319,0.0374350291837
3357.516,0.0745592235533,0.0386331852206
3359.444,0.0734994372878,0.0395268439211
3361.373,0.0724489521593,0.0403140115524
3363.302,0.0714083204034,0.0395374998736
3365.23,0.0703780738263,0.0405588007314
3367.158,0.0693576704085,0.0401244886939
3369.087,0.0683465885543,0.0403612351594
3371.015,0.0673458765603,0.040511851126
3372.944,0.0663544963433,0.0416088110458
3374.872,0.065373475773,0.0407503996945
3376.801,0.0644017971932,0.0413138098016
3378.729,0.0634404680467,0.0416597037919
3380.658,0.0624884911042,0.0428362334486
3382.586,0.0615468533815,0.0427226300917
3384.515,0.060614578076,0.0428719780748
3386.443,0.0596926317771,0.0424306372009
3388.372,0.0587800581089,0.0448745461567
3390.3,0.0578778032338,0.0459872023257
3392.229,0.0569849312028,0.0455007657547
3394.157,0.0561023677514,0.0448949535869
3396.086,0.0552291973576,0.0476313606127
3398.014,0.05436632533,0.0474347966754
3399.943,0.0535128565734,0.0493150520489
3401.871,0.0526696759696,0.0493738901883
3403.8,0.0518359088501,0.0498493231321
3405.728,0.0510124196702,0.0495720845247
3407.657,0.0501983541879,0.050646687761
3409.585,0.0493945564317,0.0510140152857
3411.514,0.0486001925866,0.0526711608957
3413.442,0.0478160862542,0.0517874212764
3415.371,0.0470414240463,0.0520038604983
3417.299,0.0462770091377,0.0523270543415
3419.228,0.045522048567,0.054198966292
3421.156,0.0447773250822,0.0537104440475
3423.085,0.0440420661486,0.0546561548157
3425.013,0.0433170340876,0.0557363875236
3426.942,0.0426014767912,0.0582955210861
3428.87,0.041896136154,0.0591977180864
3430.799,0.0412002804948,0.0598019432998
3432.727,0.0405146312814,0.0605879159742
3434.656,0.0398384772594,0.062773824368
3436.584,0.0391725194698,0.0624121868883
3438.513,0.0385160670849,0.0637290051884
3440.441,0.0378698007191,0.0640556010802
3442.37,0.0372330499715,0.0642013986286
3444.298,0.0366064750294,0.0639325424577
3446.227,0.0359894259189,0.0632051561087
3448.155,0.0353825424007,0.0602557371909
3450.084,0.0347851949274,0.0633210923464
3452.012,0.034198002833,0.0651191911426
3453.941,0.0336203569969,0.0671027805752
3455.869,0.0330528563262,0.0661790753427
3457.798,0.0324949121273,0.066902793321
3459.726,0.0319471028804,0.0664654615591
3461.655,0.0314088603187,0.0676156014219
3463.583,0.0308807424956,0.0677460643375
3465.512,0.0303622015711,0.0703563367894
3467.44,0.0298537751718,0.0702230468236
3469.369,0.0293549358844,0.0709595794295
3471.297,0.0288662009089,0.0698721494398
3473.226,0.0283870632587,0.0705451110059
3475.154,0.027918019707,0.0705318438329
3477.083,0.027458583694,0.0726307218756
3479.011,0.0270092315661,0.0729341122123
3480.94,0.0265694971903,0.0722645268671
3482.868,0.0261398364862,0.0715038004288
3484.797,0.0257198037476,0.0751092673128
3486.725,0.0253098344672,0.0740568389382
3488.654,0.0249095033658,0.072966317922
3490.582,0.0245192255092,0.0728580614614
3492.511,0.024138596045,0.0734804780478
3494.439,0.0237680096122,0.0723678440217
3496.368,0.0234070817851,0.0718311169412
3498.296,0.0230561867762,0.0703191796445
3500.225,0.0227149605863,0.0710818654523
3502.153,0.0223837570011,0.0692899516818
3504.082,0.0220622324484,0.0680648776294
3506.01,0.021750720287,0.0696552233095
3507.939,0.0214488973715,0.0734452702217
3509.867,0.0211570766339,0.0737888952654
3511.796,0.0208749553556,0.076233505172
3513.724,0.0206028260418,0.0751697404193
3515.653,0.0203404064007,0.074541833567
3517.581,0.0200879685106,0.0730096257479
3519.51,0.0198452505067,0.0730520506153
3521.438,0.0196125040404,0.073257959924
3523.367,0.0193894876737,0.0725784189269
3525.295,0.0191764326312,0.0712499799837
3527.224,0.0189731179017,0.0715718128575
3529.152,0.018779754283,0.0700700890406
3531.081,0.0185961411906,0.0709642045084
3533.009,0.0184224689957,0.0715524122334
3534.938,0.0182585575405,0.0721086212728
3536.866,0.0181045767695,0.0681374630567
3538.795,0.0179603669514,0.0694781249115
3540.723,0.0178260776042,0.0705545450583
3542.652,0.0177015694233,0.0707111466385
3544.58,0.0175869714998,0.0661352057972
3546.509,0.0174821649562,0.062278322257
3548.437,0.0173872584565,0.0622755334166
3550.366,0.01730215355,0.0666966334711
3552.294,0.0172269384741,0.0646639945088
3554.223,0.0171615352048,0.0676612182572
3556.151,0.0171060115527,0.0741951609936
3558.08,0.0170603099206,0.0821778888058
3560.008,0.0170244776923,0.0880717014243
3561.937,0.0169984776973,0.0938454523542
3563.865,0.0169823368928,0.0962218984251
3565.794,0.0169760385351,0.0898660720482
3567.722,0.0169795891543,0.0754669386936
3569.651,0.0169929924338,0.0812445492624
3571.579,0.0170162344768,0.0874342355525
3573.508,0.0170493393935,0.0862075088831
3575.436,0.0170922728603,0.0788836697254
3577.365,0.0171450794141,0.0720604194234
3579.293,0.0172077043047,0.0654797009313
3581.222,0.0172802124957,0.063487704213
3583.15,0.0173625288102,0.0641729002811
3585.079,0.0174547386383,0.065706082144
3587.007,0.0175567463766,0.0590050144644
3588.936,0.0176686578419,0.0634027562893
3590.864,0.0177903570039,0.0801360050703
3592.793,0.0179219701065,0.09426225106
3594.721,0.0180633606923,0.108407072948
3596.65,0.018214675432,0.127905156773
3598.578,0.0183757574416,0.133824181909
3600.507,0.0185467738185,0.117425883616
3602.435,0.0187275472519,0.0883384084744
3604.364,0.018918265266,0.0704502276077
3606.292,0.0191187301232,0.0564358033854
3608.221,0.0193291497745,0.0417418094897
3610.149,0.0195493060554,0.0367757722828
3612.078,0.0197794273439,0.0360193192446
3614.006,0.0200192750486,0.0272434864999
3615.935,0.0202690979743,0.0333352687496
3617.863,0.0205286371028,0.0304699477551
3619.792,0.0207981616657,0.0198006455717
3621.72,0.021077392218,0.0236486767196
3623.649,0.0213666184181,0.0322073227525
3625.577,0.0216655403942,0.0322244828546
3627.506,0.0219744682314,0.0255849171926
3629.434,0.0222930816313,0.00055393140823
3631.363,0.0226217111057,0.0172309625019
3633.291,0.0229600159294,0.0275839545548
3635.22,0.023308347041,0.0273653111011
3637.148,0.0236663432885,0.029898854326
3639.077,0.0240343760372,0.0298040450686
3641.005,0.0244120637085,0.0290141467433
3642.934,0.0247997980945,0.0293693619176
3644.862,0.0251971771896,0.0308756015429
3646.791,0.0256046132127,0.0203104782661
3648.719,0.0260216837315,0.000195186782956
3650.648,0.0264488213919,-0.00324802284746
3652.576,0.0268855833345,0.0115952111666
3654.505,0.027332422632,0.0231349785607
3656.433,0.0277888759985,0.0129162185128
3658.362,0.0282554169332,0.0170061821773
3660.29,0.0287315617234,0.0243679025443
3662.219,0.0292178042953,0.0273467868297
3664.147,0.0297136405093,0.027312084751
3666.076,0.0302195847184,0.0276055441606
3668.004,0.0307351123562,0.0225953233054
3669.933,0.0312607582024,0.00436064076653
3671.861,0.031795977264,0.00283679338187
3673.79,0.0323413247475,0.0120496587762
3675.718,0.0328962352329,-0.0149716420862
3677.647,0.0334612843535,-0.00407606247944
3679.575,0.0340358862627,0.00643085789986
3681.504,0.0346206370205,0.010348482559
3683.432,0.0352149303535,0.0146410284053
3685.361,0.0358193827484,0.0141995700465
3687.289,0.0364333675052,0.00571481808056
3689.218,0.0370575215374,-0.0119411766471
3691.146,0.0376911977179,-0.0124863559106
3693.075,0.0383350533873,-0.00223336532503
3695.003,0.0389884209916,0.00649818569996
3696.932,0.0396519782982,0.00638370349702
3698.86,0.0403250373263,0.00571064446888
