baseline wavenumber (cm-1),baseline absorbance (cm-1),baseline-subtracted absorbance (cm-1)
3199.379,0.172031739614,1.15463194561e-14
3201.308,0.170661558316,0.00187811620117
3203.236,0.169299119976,0.00209530032083
3205.165,0.167943011277,0.0026230455312
3207.093,0.16659463824,0.00299345435117
3209.021,0.16525329603,0.0012133975913
3210.95,0.163918294403,0.000766836497201
3212.878,0.162591017497,0.00098625936538
3214.807,0.161270088468,0.00109976900696
3216.736,0.159956197562,0.00146399853597
3218.664,0.158650020433,0.00131409560834
3220.593,0.157350202126,0.00149241386555
3222.521,0.156058090299,0.00232308831185
3224.449,0.154773009301,0.0041540098034
3226.378,0.153494298066,0.00445778926852
3228.306,0.15222328237,0.00390933665315
3230.235,0.150958643733,0.0036673544472
3232.164,0.14970104322,0.00461412912453
3234.092,0.148451127301,0.00535813177067
3236.021,0.147207599386,0.00586376420481
3237.949,0.14597174877,0.00365728185755
3239.877,0.144742928983,0.00398597023894
3241.806,0.14352050814,0.00376797866923
3243.734,0.142305753655,0.00341394714364
3245.663,0.14109740541,0.00537788014566
3247.592,0.139896095288,0.00701232480705
3249.52,0.138702440581,0.00638347875626
3251.448,0.137515816701,0.0069959593019
3253.377,0.136335613652,0.00599785445657
3255.305,0.135163055076,0.0044311024095
3257.234,0.133996924624,0.00364079901853
3259.162,0.132838431351,0.00523849172638
3261.091,0.131686373497,0.0066235426049
3263.02,0.130541353768,0.0077963597673
3264.948,0.129403960271,0.00818524421699
3266.876,0.128273597603,0.00735967845122
3268.805,0.127149684945,0.00720541461998
3270.733,0.12603338758,0.0089610529339
3272.662,0.12492354752,0.00957256083904
3274.591,0.123820745585,0.0105020078775
3276.519,0.122725547996,0.0111959116218
3278.448,0.121636818658,0.0117347572035
3280.376,0.120555686373,0.0104237940681
3282.304,0.119481584915,0.00905273227906
3284.233,0.11841396265,0.00814926387411
3286.161,0.117353926495,0.00958481807211
3288.09,0.116300376828,0.00974025796476
3290.019,0.115253865284,0.0107048934347
3291.947,0.114214928906,0.0118065003874
3293.875,0.113183023357,0.0127353027326
3295.804,0.112157618885,0.0133755864114
3297.732,0.111139778638,0.01374701
3299.661,0.110128446765,0.0146678738656
3301.589,0.109124671821,0.0161052887571
3303.518,0.108127412546,0.0150435163939
3305.447,0.107137191394,0.0144098620784
3307.375,0.106154516227,0.0140142899995
3309.303,0.105178871888,0.0128085939966
3311.232,0.104209757809,0.0146919909021
3313.16,0.103248178773,0.017655490488
3315.089,0.102293137292,0.0180111182424
3317.017,0.101345623558,0.0185381326328
3318.946,0.100404654675,0.0191510918122
3320.875,0.0994707239151,0.0194370896904
3322.803,0.0985443099593,0.0176595715731
3324.731,0.0976249268314,0.0185258868753
3326.66,0.0967121031441,0.0195766869095
3328.588,0.0958067853189,0.0181980665966
3330.517,0.0949080342295,0.0178605900503
3332.445,0.0940167817071,0.0208700069313
3334.374,0.0931321032157,0.0208631459504
3336.302,0.092254915996,0.0187281022998
3338.231,0.0913843101026,0.0180617628783
3340.159,0.0905211881856,0.0205325872112
3342.088,0.0896646548902,0.0214179287548
3344.016,0.0888155982758,0.0218661969329
3345.945,0.0879731375784,0.0228607853974
3347.873,0.0871381462668,0.0215326310505
3349.802,0.0863097581674,0.0216549643637
3351.73,0.0854888321585,0.0242948532757
3353.659,0.0846745166571,0.0242727187619
3355.587,0.0838676559509,0.0241309289071
3357.516,0.0830674130474,0.0242220845771
3359.444,0.0822746176439,0.0232833526381
3361.373,0.0814884473385,0.0220084696735
3363.302,0.0807093151563,0.0234254265802
3365.23,0.0799376195303,0.0234647862112
3367.158,0.0791729547322,0.0245230929783
3369.087,0.0784149296227,0.0251123118612
3371.015,0.0776643301273,0.0251371456636
3372.944,0.0769203776159,0.0256491159655
3374.872,0.0761838434232,0.026241103509
3376.801,0.0754539635097,0.0276856301424
3378.729,0.0747314946197,0.0289084528179
3380.658,0.0740156873042,0.0283051456079
3382.586,0.073307283717,0.0281376773666
3384.515,0.0726055489995,0.0272969072827
3386.443,0.0719112107149,0.0284531883551
3388.372,0.0712235485954,0.029314205372
3390.3,0.0705432756136,0.028490889958
3392.229,0.069869686092,0.0278964111484
3394.157,0.0692034784129,0.0295855643446
3396.086,0.0685439614894,0.0317158181528
3398.014,0.0678918191129,0.0306667576585
3399.943,0.0672463747874,0.031572992442
3401.871,0.0666082977137,0.0333169019224
3403.8,0.0659769259861,0.0338057486323
3405.728,0.0653529142151,0.0353485919003
3407.657,0.0647356150855,0.036158956834
3409.585,0.0641256686172,0.0362594521753
3411.514,0.0635224420856,0.035842765637
3413.442,0.0629265609201,0.0355309342786
3415.371,0.0623374069865,0.0350622695525
3417.299,0.0617555911236,0.033502672295
3419.228,0.061180509788,0.0336880841674
3421.156,0.0606127592278,0.0342624050298
3423.085,0.0600517504902,0.0348330165168
3425.013,0.0594980652327,0.0375362014205
3426.942,0.0589511290931,0.0393390761025
3428.87,0.0584115091383,0.0397801415238
3430.799,0.0578786455967,0.0387164216226
3432.727,0.0573530909446,0.0396766270378
3434.656,0.056834300001,0.0433067087931
3436.584,0.0563228106516,0.0442710435888
3438.513,0.055818092306,0.0433313062587
3440.441,0.0553206682593,0.0423771989195
3442.37,0.0548300225116,0.0402619617196
3444.298,0.0543466637677,0.0429554690535
3446.227,0.053870090618,0.040207034622
3448.155,0.0534007971768,0.0368220876913
3450.084,0.0529382966251,0.0417427910126
3452.012,0.0524830684866,0.0454437484547
3453.941,0.0520346405329,0.0443916204597
3455.869,0.0515934776971,0.0440792201701
3457.798,0.0511591223414,0.0445226728674
3459.726,0.0507320248083,0.0458635478189
3461.655,0.0503117420505,0.0450076757196
3463.583,0.0498987098201,0.0456016439654
3465.512,0.0494924996604,0.0468776610593
3467.44,0.0490935327327,0.0455617791039
3469.369,0.048701395171,0.0450158796698
3471.297,0.048316493546,0.0473440745325
3473.226,0.0479384285822,0.0460371096772
3475.154,0.0475675922599,0.0431126867252
3477.083,0.0472035998942,0.0446401279942
3479.011,0.0468468288746,0.0469983141558
3480.94,0.0464969091068,0.0447094994649
3482.868,0.04615420339,0.0428092050807
3484.797,0.0458183562202,0.0458666735989
3486.725,0.045489715806,0.046470761299
3488.654,0.0451679412342,0.044671339065
3490.582,0.0448533661228,0.0463631506062
3492.511,0.044545664149,0.0477665768295
3494.439,0.0442451543402,0.0481231869112
3496.368,0.0439515249644,0.0473241244847
3498.296,0.0436650804584,0.048349980696
3500.225,0.0433855236805,0.0481650676467
3502.153,0.0431131444772,0.0420182615675
3504.082,0.0428476602974,0.0387418474354
3506.01,0.0425893463968,0.0430474675121
3507.939,0.0423379348149,0.0451567584025
3509.867,0.042093686217,0.0476632126003
3511.796,0.0418563472331,0.0505266508463
3513.724,0.0416261639379,0.0501503447045
3515.653,0.0414028975521,0.0491530510985
3517.581,0.0411867795596,0.047419810959
3519.51,0.0409775857717,0.0460036130558
3521.438,0.0407755330819,0.0428997929062
3523.367,0.040580411892,0.0385346189379
3525.295,0.0403924245049,0.0402742084679
3527.224,0.040211375913,0.0363720669254
3529.152,0.0400374538286,0.0362397118441
3531.081,0.0398704778347,0.0427687620319
3533.009,0.0397106210531,0.0467889240799
3534.938,0.0395577176571,0.0476756796945
3536.866,0.0394119261782,0.0448441134458
3538.795,0.0392730953802,0.046492597534
3540.723,0.039141369204,0.046699629482
3542.652,0.039016611004,0.0410036053105
3544.58,0.0388989501305,0.0331262191811
3546.509,0.0387882645285,0.0332945212796
3548.437,0.0386846689577,0.0409858051149
3550.366,0.0385880559537,0.0441785466946
3552.294,0.0384985256856,0.0382335070648
3554.223,0.0384159852796,0.0419923842746
3556.151,0.0383405203142,0.0507836078572
3558.08,0.0382720525062,0.0561371257006
3560.008,0.0382106528435,0.0605056111816
3561.937,0.0381562576335,0.0649995090702
3563.865,0.0381089232735,0.0667389489594
3565.794,0.0380686006615,0.0527051787785
3567.722,0.0380353316042,0.0324776573779
3569.651,0.0380090815901,0.0435172501596
3571.579,0.0379898778356,0.0530366055365
3573.508,0.0379777004195,0.05085581823
3575.436,0.0379725619676,0.0468828913832
3577.365,0.0379744571496,0.0470482862043
3579.293,0.0379833840004,0.0467073063867
3581.222,0.0379993517803,0.0465498244048
3583.15,0.0380223439339,0.0464737644256
3585.079,0.0380523843118,0.0449148652586
3587.007,0.0380894417681,0.034700409642
3588.936,0.038133554744,0.0415940304173
3590.864,0.0381846775029,0.0665742429459
3592.793,0.0382428630768,0.0800822152614
3594.721,0.0383080511385,0.0926911402089
3596.65,0.0383803093104,0.111066774486
3598.578,0.0384595626747,0.119950929593
3600.507,0.0385458934446,0.102322902674
3602.435,0.0386392121117,0.0730902935994
3604.364,0.0387396154796,0.0558631339392
3606.292,0.0388469994494,0.0398040669612
3608.221,0.0389614754152,0.0227877412026
3610.149,0.0390829246877,0.0236629562382
3612.078,0.0392114732516,0.0198808142244
3614.006,0.0393469878268,0.00692815621449
3615.935,0.0394896089886,0.0097098249546
3617.863,0.0396391888665,0.00613408516565
3619.792,0.0397958826263,6.61410267644e-05
3621.72,0.0399595278069,0.0149687042764
3623.649,0.0401302941648,0.02608723338
3625.577,0.0403080046481,0.0261222996075
3627.506,0.0404928436039,0.0140103404657
3629.434,0.0406846193899,-0.0126648074016
3631.363,0.0408835309437,0.00952534401839
3633.291,0.0410893720324,0.0178381524798
3635.22,0.0413023561842,0.0155444041514
3637.148,0.0415222625757,0.0192120950509
3639.077,0.0417493193254,0.0192554315085
3641.005,0.0419832910196,0.0230141819411
3642.934,0.0422244203673,0.0209434761251
3644.862,0.0424724573642,0.0183629818352
3646.791,0.04272765931,-0.00196499884296
3648.719,0.0429897616095,-0.0303070566666
3650.648,0.0432590361533,-0.032902723609
3652.576,0.0435352037555,-0.00206749931806
3654.505,0.0438185508973,0.0162355277442
3656.433,0.0441087838022,0.00506841219492
3658.362,0.044406203542,0.00881880403915
3660.29,0.0447105017497,0.0211916512878
3662.219,0.0450219940874,0.024336643333
3664.147,0.0453403575978,0.0202464209325
3666.076,0.0456659225335,0.0151048244594
3668.004,0.0459983513466,0.00518834631846
3669.933,0.0463379888802,-0.0202225537241
3671.861,0.0466844829961,-0.00743248663499
3673.79,0.0470381931277,0.000116360597128
3675.718,0.0473987525462,-0.0456374061397
3677.647,0.0477665352759,-0.0281036423213
3679.575,0.0481411599971,-0.00357176749739
3681.504,0.0485230153248,0.011779218578
3683.432,0.0489117053487,0.0163228039002
3685.361,0.0493076332744,0.0131547138398
3687.289,0.049710388601,0.00277773431419
3689.218,0.0501203891246,-0.025479734116
3691.146,0.050537209754,-0.0150363505606
3693.075,0.0509612828756,0.00250884751962
3695.003,0.0513921688077,0.0104540861201
3696.932,0.0518303145273,0.0100058322432
3698.86,0.052275265762,0.00956088100841
