baseline wavenumber (cm-1),baseline absorbance (cm-1),baseline-subtracted absorbance (cm-1)
3199.3790000000004,0.1708212877792299,7.882583474838611e-15
3201.308,0.16900248203893398,0.001092534639525633
3203.236,0.16719446488546907,0.001355014544430766
3205.165,0.16539536078235884,0.0019022233680505707
3207.093,0.16360703505268148,0.002772728416438053
3209.0209999999997,0.16182855248221628,0.0032887021422657314
3210.95,0.16005899828087422,0.0037325715159517436
3212.8779999999997,0.15830020713419657,0.0047468968787418575
3214.8070000000002,0.15655035457003663,0.005131642801842418
3216.736,0.15481035537848697,0.006310133856325395
3218.664,0.15308110392017937,0.007034634480710178
3220.593,0.15136080636581184,0.006711568040333904
3222.5209999999997,0.14965124633129534,0.006125060148033379
3224.449,0.14795152945598744,0.006313607509543795
3226.3779999999997,0.14626078180338808,0.0060883539491641825
3228.3059999999996,0.1445807563518713,0.007212936157984018
3230.235,0.14290971033645405,0.008143559652426857
3232.164,0.14124851769363644,0.009211908870600971
3234.092,0.1395980319304968,0.009879376337975865
3236.0209999999997,0.13795654092486487,0.0108077368472973
3237.949,0.13632574658551277,0.01137616385621365
3239.877,0.13470479540536928,0.011660311235690002
3241.8059999999996,0.13309285430150553,0.010871564984858528
3243.7340000000004,0.13149159454514958,0.01207153089708235
3245.663,0.1298993550784715,0.013220022259039954
3247.592,0.12831696898439304,0.01356870775673713
3249.52,0.12674524891641425,0.01328709718689114
3251.448,0.12518337200764407,0.014495188590758823
3253.377,0.12363053581533379,0.014799161950763362
3255.305,0.12208835033035115,0.01475234511086998
3257.2340000000004,0.12055521577522654,0.01421735068590757
3259.1620000000003,0.119032721714035,0.01437018943526247
3261.091,0.11751928879609252,0.014114189420828427
3263.02,0.11601570925075677,0.015234164397277317
3264.948,0.11452275487793884,0.015848214494344592
3266.8759999999997,0.1130396436643295,0.01693053727168592
3268.805,0.11156561402075837,0.01734876988705525
3270.7329999999997,0.11010219423094014,0.01808086449745372
3272.6620000000003,0.10864786622455114,0.018365678706207977
3274.591,0.10720339159076886,0.018627498937887732
3276.5190000000002,0.10576951148932068,0.017672316065516003
3278.448,0.10434473849272408,0.018612908328260458
3280.3759999999997,0.10293054981507055,0.01929627723435834
3282.304,0.10152620429662207,0.01915963417502453
3284.2329999999997,0.10013098120179009,0.018405863031506042
3286.1609999999996,0.09874632710713271,0.019792538757620215
3288.09,0.09737080564948641,0.020688933560055744
3290.0190000000002,0.09600513756443974,0.020704657239967506
3291.947,0.09465002315815596,0.02024131415105246
3293.875,0.09330475191108079,0.021871130025642116
3295.804,0.09196863372780228,0.02267202128078971
3297.732,0.09064305390451821,0.022470763946487504
3299.6609999999996,0.08932663735842183,0.02279051618448724
3301.5890000000004,0.08802074895892886,0.023586953456920745
3303.518,0.08672403405002171,0.023794514418592483
3305.447,0.08543717251371419,0.025039932510039997
3307.375,0.08416082380259127,0.025433333682499226
3309.303,0.0828943182506805,0.025014304007481836
3311.232,0.08163700661614115,0.02396746118937787
3313.16,0.08039019248801793,0.02483218697220646
3315.0890000000004,0.07915258249066426,0.024615738544411125
3317.0170000000003,0.07792545978633214,0.025267201691480334
3318.946,0.07670755142616059,0.025361082961790404
3320.875,0.07549949643859577,0.02526316402840112
3322.803,0.0743019134226337,0.025605596938227393
3324.7309999999998,0.07311417356588379,0.027073838159578645
3326.66,0.07193566848008359,0.027057559054536773
3328.5879999999997,0.07076762004712478,0.028296364588476175
3330.5170000000003,0.0696088165985067,0.028451933426763665
3332.445,0.068460459589339,0.028279659686916925
3334.3740000000003,0.0673213577779066,0.027468897958472627
3336.302,0.06619269219252644,0.027294622070083596
3338.2309999999998,0.06507329201828327,0.02718032164794526
3340.159,0.06396431785669421,0.027693925345570025
3342.0879999999997,0.06286461931963316,0.0286081391964893
3344.0159999999996,0.061775336581835205,0.030121964540170243
3345.945,0.060695339681956284,0.029982917671728226
3347.873,0.05962574836795298,0.030775040068314996
3349.802,0.05856545310525618,0.031304151665794144
3351.73,0.05751555321504398,0.031550958459877654
3353.659,0.05647495958953286,0.03107482308508558
3355.587,0.055444751123108205,0.03140655788325997
3357.5159999999996,0.05442385913478276,0.032178283794561224
3359.4440000000004,0.05341334209214921,0.03279559351888883
3361.373,0.05241215174100944,0.03301592871992254
3363.302,0.051420814762472844,0.032833203230047125
3365.23,0.050439837408212895,0.031435225767770136
3367.158,0.049468703213157994,0.032687872143154606
3369.087,0.04850691613638958,0.03268534101513165
3371.015,0.04755547336512578,0.03296812918212977
3372.9440000000004,0.046613387925539485,0.03251579432453633
3374.8720000000003,0.04568163657807034,0.032714704268993255
3376.801,0.04475925277566617,0.03296135775703368
3378.7290000000003,0.043847192851988126,0.03359089468465393
3380.658,0.04294451068676963,0.03460325035639222
3382.586,0.04205214218687914,0.03528486377693352
3384.515,0.04116916165884987,0.03511609053967424
3386.4429999999998,0.04029648458274693,0.03569967431748566
3388.3720000000003,0.03943320569190334,0.035248892761548634
3390.3,0.038580220039591495,0.036119567689105625
3392.2290000000003,0.03773664278593003,0.0370839374222981
3394.157,0.03690334855741284,0.03813101917734907
3396.086,0.03607947294093705,0.03857179563280211
3398.014,0.03526587013620741,0.0395956481090165
3399.9429999999998,0.034461696156913746,0.04088703526934723
3401.8709999999996,0.03366778477597876,0.042411261013973856
3403.8,0.03288331243387077,0.04240527545655681
3405.728,0.03210909247672333,0.04322498212147741
3407.657,0.03134432177180102,0.044513355373655306
3409.585,0.030589793238444685,0.04547156327626267
3411.514,0.029844724170704495,0.04449167530367126
3413.442,0.02910988706113926,0.04437641638574241
3415.3709999999996,0.028384519630584748,0.044164252228305334
3417.2990000000004,0.027669373944807063,0.045126542359650634
3419.228,0.02696370815144178,0.045589612378225675
3421.156,0.026268253889455195,0.04558406593264108
3423.085,0.025582289733272034,0.04574491131797631
3425.013,0.024906526895076553,0.04672391887465954
3426.942,0.024240264376079068,0.04805074947209642
3428.87,0.023584192961674688,0.050221528255347425
3430.7990000000004,0.022937632079859327,0.05068563689820593
3432.7270000000003,0.02230125208924605,0.05153378278389664
3434.656,0.021674392844616364,0.05274135566443039
3436.5840000000003,0.021057704277794187,0.05465188836346724
3438.513,0.020450546670346625,0.05401574262511477
3440.441,0.01985354952731555,0.05371564080928615
3442.37,0.019266093557057218,0.053609171782071585
3444.298,0.018688787837813692,0.054529649441070416
3446.2270000000003,0.018121033504737483,0.054373659712688927
3448.155,0.01756341920928861,0.05442990940690473
3450.0840000000003,0.017015366513394525,0.055745676648437104
3452.012,0.016477443641736755,0.0566904528507326
3453.941,0.0159490925830319,0.05694942151784743
3455.869,0.015430861135158125,0.05818280509348828
3457.798,0.014922211713638944,0.05839073683584051
3459.7259999999997,0.014423671689559825,0.05980911917266596
3461.655,0.013934723905222768,0.06034506988836863
3463.583,0.01345587530493475,0.06175184732722938
3465.512,0.01298662915778337,0.06388944483392789
3467.44,0.012527471981286453,0.0658405660253849
3469.369,0.012077927471317196,0.06609755013911434
3471.297,0.011638461718611381,0.06730119258240952
3473.2259999999997,0.011208618845824248,0.06858618556133222
3475.1540000000005,0.010788844516909535,0.0688457455973126
3477.083,0.01037870328131163,0.06872520857555686
3479.011,0.009978620376184466,0.07082649435140076
3480.94,0.009588180777772237,0.07156566537607412
3482.868,0.009207789296436175,0.07350321848684482
3484.797,0.00883705133520607,0.07529162550700552
3486.725,0.00847635127766111,0.07514135821389856
3488.6540000000005,0.00812531495361668,0.07287943588030632
3490.5820000000003,0.007784306319866374,0.07351358107526162
3492.511,0.0074529716330040685,0.07347849506061765
3494.4390000000003,0.0071316544230413115,0.07319483905719726
3496.368,0.006820021373364682,0.07195891322685755
3498.296,0.006518395587193027,0.07216147907165671
3500.225,0.006226464174705626,0.07357592135041313
3502.153,0.005944529812317967,0.07546960139156378
3504.0820000000003,0.00567230003701269,0.07371312400018526
3506.01,0.005410057098423238,0.07590703579554214
3507.9390000000003,0.005157528960300084,0.0809563899722785
3509.867,0.004914977445501734,0.08529426141025487
3511.796,0.004682150944564256,0.08548059038769096
3513.724,0.004459290853553455,0.08511060705405793
3515.653,0.004246165989805206,0.08665194378478291
3517.5809999999997,0.0040429973225855065,0.08943774663779058
3519.51,0.0038495740960193814,0.09223351495684629
3521.438,0.0036660968525872306,0.0974210354631917
3523.367,0.0034923752632067817,0.10042908435470477
3525.295,0.0033285894435692853,0.10140960928280296
3527.224,0.00317456949137096,0.09829414576183837
3529.152,0.0030304750955210125,0.09589603860103213
3531.0809999999997,0.0028961567805083632,0.09361753977261
3533.009,0.00277175380845307,0.0917759061531358
3534.938,0.0026571371306225444,0.08970918248931081
3536.866,0.0025524255823548003,0.08655047545878525
3538.795,0.0024575105417135035,0.08513674802494986
3540.723,0.002372490417236861,0.08674607826769187
3542.652,0.0022972770137776877,0.08672930743987639
3544.58,0.002231948313092147,0.08354688520555742
3546.509,0.0021764365468186497,0.07660603590845283
3548.437,0.002130799269920658,0.07477155593072626
3550.366,0.002094989140832837,0.07785345925702425
3552.2940000000003,0.0020690432877294995,0.0794375775552908
3554.223,0.002052934795823802,0.08305977115788088
3556.151,0.0020466803665080135,0.09178885991449859
3558.08,0.002050273511791545,0.10216280644373266
3560.008,0.002063710506266858,0.11459150024881248
3561.937,0.002087005288732513,0.1258731685715727
3563.865,0.002120133706998928,0.1347367347858749
3565.7940000000003,0.0021631301266467062,0.1358839738862918
3567.722,0.0022159499687077755,0.1309979386393989
3569.651,0.00227864802554123,0.13745449662218956
3571.579,0.0023511592913898482,0.1468240150743232
3573.508,0.002433558985408979,0.14393761255002013
3575.4359999999997,0.002525761675048699,0.12703150103595895
3577.365,0.002627863006249953,0.10561483385011305
3579.2929999999997,0.0027397571196807746,0.08965840319569374
3581.222,0.0028615600880712577,0.07961999252488727
3583.15,0.0029931456252896282,0.0764135055422025
3585.079,0.003134650230862235,0.07702455324634383
3587.007,0.0032859271918752597,0.07527820906608496
3588.9359999999997,0.0034471334346299898,0.07199610926222622
3590.864,0.0036181018194341164,0.08354858169416135
3592.7929999999997,0.0037990096993745226,0.09994808420540668
3594.7209999999995,0.003989669507966198,0.11872790857754878
3596.65,0.0041902790250922806,0.135189080117736
3598.578,0.004400630257475058,0.14077575708711199
3600.507,0.004620941411786816,0.12167290272042786
3602.435,0.004850984067960695,0.08977501411257094
3604.364,0.00509099685945813,0.06822245709788544
3606.292,0.005340730939423111,0.059074006753895514
3608.2209999999995,0.005600445368102669,0.04990951116682096
3610.1490000000003,0.005869870871858751,0.04306321312692818
3612.078,0.006149286937720433,0.04089458246488753
3614.006,0.006438403865267617,0.03745677454370844
3615.935,0.0067375215683185274,0.038830556870982025
3617.863,0.00704632991965326,0.03881842293590121
3619.792,0.007365149259889847,0.031888363324765856
3621.72,0.007693649035019234,0.031167161639194862
3623.6490000000003,0.008032170012434392,0.03345676155534072
3625.577,0.008380361211351328,0.03617993394684127
3627.506,0.008738583825959267,0.03607946934294792
3629.434,0.009106466448663753,0.017507806269419612
3631.363,0.009484390700453815,0.019766594844881302
3633.2909999999997,0.009871964746952955,0.02778294276340798
3635.22,0.010269590635925141,0.025884255517921062
3637.1479999999997,0.010676856106215382,0.02883289826556268
3639.077,0.011094183632373245,0.02975085831647961
3641.005,0.011521140526454587,0.029265274110157113
3642.934,0.011958169689798126,0.02715180706144016
3644.862,0.012404818007667018,0.030717591777029152
3646.7909999999997,0.01286154880819268,0.031152905856721924
3648.719,0.013327888549856226,0.019614090627339764
3650.6479999999997,0.013804320987567564,0.006227014300009603
3652.5759999999996,0.01429035215301866,0.009666486015383224
3654.505,0.014786486227915674,0.01782849406117759
3656.433,0.01529220881715787,0.015148001432513603
3658.362,0.01580804452924056,0.01276771610959504
3660.29,0.016333458542270307,0.01504984278189836
3662.219,0.016868995891538674,0.015619127023653978
3664.147,0.01741410132835952,0.018025098105583615
3666.0759999999996,0.017969340314813564,0.02076461298549981
3668.0040000000004,0.018534137175425514,0.02326258778161483
3669.933,0.01910907779906168,0.014615778159697057
3671.861,0.01969356608346473,0.008525376603283452
3673.79,0.020288208344290126,0.01642664053875853
3675.718,0.020892388052480726,0.004724714949641995
3677.647,0.021506731950488245,0.0027998484599029982
3679.575,0.0221306030824735,0.006330429971200702
3681.5040000000004,0.02276464861766314,0.005937969395073295
3683.4320000000002,0.023408211173439497,0.008981862616108671
3685.361,0.024061958345814816,0.00943040999543654
3687.289,0.02472521232537872,0.010614927167191701
3689.218,0.025398661134939715,0.0021091726869545413
3691.1459999999997,0.026081606538298274,-4.40041932058266e-05
3693.075,0.026774756985041392,-0.0010843698426173942
3695.0029999999997,0.027477393812191053,0.003581941071059691
3696.9320000000002,0.028190245896119848,0.0024309003689160225
3698.86,0.028912574147057057,0.0017085721179788127
