baseline wavenumber (cm-1),baseline absorbance (cm-1),baseline-subtracted absorbance (cm-1)
3199.379,0.206604922673,2.16215934046e-14
3201.308,0.20472375692,-0.000165837178822
3203.236,0.202853412082,0.000846931595351
3205.165,0.200991947967,0.00108189212229
3207.093,0.199141294552,0.00212171970011
3209.021,0.197300484297,0.00154248547928
3210.95,0.195468570084,0.00259900294767
3212.878,0.193647451252,0.00322766246427
3214.807,0.191835238676,0.00406625733117
3216.736,0.190032879472,0.00312819401397
3218.664,0.188241300329,0.0036971915335
3220.593,0.186458642763,0.00318408441799
3222.521,0.184686755044,0.00454209363715
3224.449,0.182924710484,0.00525880311163
3226.378,0.181171602819,0.00679059267275
3228.306,0.179429249683,0.00714999827019
3230.235,0.177695843655,0.00837198208011
3232.164,0.175972291,0.00764693471493
3234.092,0.174259477552,0.00882325771488
3236.021,0.172555626535,0.00989873513524
3237.949,0.170862504511,0.010572500038
3239.877,0.169179225646,0.0101365531876
3241.806,0.16750492453,0.0110658325711
3243.734,0.165841337089,0.0102910797715
3245.663,0.16418673761,0.0108141721241
3247.592,0.162541991504,0.011594620242
3249.52,0.160907943751,0.0130917024634
3251.448,0.159283739158,0.0130659525434
3253.377,0.157668542953,0.0135403926578
3255.305,0.156064029784,0.0131824576317
3257.234,0.154468535216,0.0138362762666
3259.162,0.152883713471,0.0133168829107
3261.091,0.15130792054,0.014490623885
3263.02,0.149741980983,0.0151484465923
3264.948,0.148186698925,0.0165947121734
3266.876,0.146641260027,0.0167311750279
3268.805,0.145104870371,0.0177915210165
3270.733,0.143579122897,0.0179345736561
3272.662,0.142062434878,0.0181524645455
3274.591,0.140555600232,0.0172709437887
3276.519,0.139059392446,0.0177924725087
3278.448,0.137572259437,0.0175022376817
3280.376,0.136095743075,0.0191352283187
3282.304,0.134629069872,0.0186996474026
3284.233,0.133171486765,0.0191214476329
3286.161,0.131724504986,0.0195151594233
3288.09,0.130286623516,0.0210348664264
3290.019,0.128858595419,0.0209638042578
3291.947,0.127441153328,0.0212716739237
3293.875,0.126033554396,0.0210047049791
3295.804,0.124635076201,0.0226930345847
3297.732,0.123247168693,0.0220107409402
3299.661,0.121868392135,0.0229433939769
3301.589,0.12050017605,0.0241791426598
3303.518,0.119141101129,0.0252859179751
3305.447,0.117791879581,0.0243903199543
3307.375,0.116453203185,0.0252245487608
3309.303,0.115124369949,0.0252641876174
3311.232,0.113804698302,0.0261573961084
3313.16,0.112495556489,0.0255971353132
3315.089,0.111195586479,0.0271894837722
3317.017,0.109906136091,0.0271422819828
3318.946,0.108625867718,0.02751347323
3320.875,0.107355452718,0.0276992324125
3322.803,0.106095542018,0.0291964321053
3324.731,0.104845474476,0.029744336501
3326.66,0.103604609378,0.0302355301141
3328.588,0.102374233261,0.0291335500202
3330.517,0.1011530698,0.0295667320801
3332.445,0.0999423851063,0.0300502864797
3334.374,0.0987409232826,0.0315527186864
3336.302,0.0975499300127,0.0312938484165
3338.231,0.0963681698262,0.0320895275356
3340.159,0.09519686798,0.0313598387823
3342.088,0.0940348094307,0.0330474204288
3344.016,0.0928831990083,0.0333930569302
3345.945,0.0917408420962,0.0339970028446
3347.873,0.0906089230976,0.0336324596983
3349.802,0.0894862678227,0.0352780604902
3351.73,0.0883740402479,0.0355554048142
3353.659,0.0872710866102,0.0359892995214
3355.587,0.0861785504592,0.0362424542917
3357.516,0.0850952984586,0.037632185621
3359.444,0.0840224537314,0.0370822162373
3361.373,0.082958903368,0.0372131880097
3363.302,0.0819052063773,0.0362737080067
3365.23,0.0808619013384,0.0370465187566
3367.158,0.0798284394588,0.0369905739851
3369.087,0.0788042923698,0.0385834565436
3371.015,0.0777905219139,0.0387035142733
3372.944,0.0767860764621,0.0389112853088
3374.872,0.07579199743,0.0381711583367
3376.801,0.0748072536154,0.0389721358519
3378.729,0.0738328660071,0.0393435213374
3380.658,0.0728678238297,0.0408341876936
3382.586,0.0719131276452,0.0404397481255
3384.515,0.070967787105,0.0402858265613
3386.443,0.0700327823443,0.0402427154825
3388.372,0.0691071434412,0.0423377671016
3390.3,0.0681918301043,0.0436680708358
3392.229,0.0672858928384,0.0438790217477
3394.157,0.0663902709253,0.043204796294
3396.086,0.0655040352966,0.0447736863248
3398.014,0.0646281048073,0.0443923642112
3399.943,0.0637615708158,0.0465761427191
3401.871,0.0629053317502,0.0469267717573
3403.8,0.0620584993959,0.0477614743229
3405.728,0.0612219517542,0.0485964046595
3407.657,0.060394821037,0.0503892687234
3409.585,0.0595779648191,0.050479752759
3411.514,0.0587705357391,0.051132425951
3413.442,0.0579733709449,0.0501770889762
3415.371,0.0571856435022,0.0509711845581
3417.299,0.0564081701318,0.050960070038
3419.228,0.0556401443262,0.0510754626687
3421.156,0.0548823623796,0.0502116434831
3423.085,0.0541340382112,0.0520477569975
3425.013,0.0533959476884,0.0532050833436
3426.942,0.0526673251572,0.0552497879531
3428.87,0.0519489260582,0.0563902026186
3430.799,0.0512400051642,0.0578428817256
3432.727,0.050541297489,0.0575592281352
3434.656,0.0498520782321,0.0589857363843
3436.584,0.0491730619807,0.0596123418402
3438.513,0.048503544361,0.0609779577112
3440.441,0.0478442195334,0.0606882276515
3442.37,0.0471944035509,0.060672168773
3444.298,0.0465547701471,0.0600776467133
3446.227,0.0459246558018,0.0595527019259
3448.155,0.0453047138217,0.0580606960641
3450.084,0.0446943011136,0.0617008772954
3452.012,0.0440940505574,0.0628328169247
3453.941,0.0435033394864,0.0640479594118
3455.869,0.042922780354,0.0643747027149
3457.798,0.0423517709202,0.065718228069
3459.726,0.0417909032115,0.0645949756927
3461.655,0.041239595415,0.0657222968321
3463.583,0.0406984191301,0.0659608854287
3465.512,0.0401668129707,0.0677819892126
3467.44,0.0396453281096,0.0681918800173
3469.369,0.0391334235874,0.0699313697007
3471.297,0.0386316301501,0.0695984820504
3473.226,0.0381394272651,0.0706798894234
3475.154,0.0376573252516,0.0711289377626
3477.083,0.0371848240038,0.0738212408906
3479.011,0.0367224134141,0.0747957307282
3480.94,0.0362696138034,0.0738346012981
3482.868,0.0358268946375,0.072909383539
3484.797,0.0353937966641,0.0760225583344
3486.725,0.0349707689219,0.0745763856318
3488.654,0.0345573725857,0.0739731540493
3490.582,0.0341540362673,0.0747503911056
3492.511,0.0337603415682,0.0758692450081
3494.439,0.0333766966737,0.0745299544938
3496.368,0.0330027036118,0.0738011981369
3498.296,0.032638750141,0.0730356661129
3500.225,0.0322844587163,0.07334255028
3502.153,0.0319401966693,0.0707202197868
3504.082,0.0316056068818,0.07045170637
3506.01,0.0312810362586,0.073116365945
3507.939,0.0309661481082,0.0768424033928
3509.867,0.0306612689089,0.0783612217411
3511.796,0.0303660823957,0.0825599764338
3513.724,0.0300808946201,0.0818441028529
3515.653,0.0298054097441,0.0812244093199
3517.581,0.0295399133923,0.0807174908329
3519.51,0.0292841301535,0.0829554837149
3521.438,0.0290383252255,0.0838796470782
3523.367,0.0288022436239,0.0831233603385
3525.295,0.0285761301197,0.0825896436598
3527.224,0.0283597501552,0.0828331640265
3529.152,0.0281533280748,0.0809120717028
3531.081,0.0279566497476,0.0815607868238
3533.009,0.0277699190909,0.0816540675663
3534.938,0.0275929424008,0.0815669686474
3536.866,0.027425903168,0.077864908517
3538.795,0.0272686281151,0.0790880382146
3540.723,0.0271212803061,0.0797683891572
3542.652,0.0269837068904,0.0786208619967
3544.58,0.0268560505051,0.0716220147936
3546.509,0.0267381787266,0.0667677850862
3548.437,0.0266302137651,0.0678862625313
3550.366,0.0265320436238,0.0724814507662
3552.294,0.0264437700861,0.0709769819608
3554.223,0.026365301582,0.0763203852673
3556.151,0.0262967194681,0.0850004603561
3558.08,0.0262379526011,0.093568931054
3560.008,0.026189061911,0.100228809311
3561.937,0.0261499966812,0.108082339314
3563.865,0.0261207974149,0.112101935831
3565.794,0.0261014338223,0.10607606542
3567.722,0.0260919259798,0.0944439579786
3569.651,0.0260922640244,0.105255456586
3571.579,0.0261024476057,0.114262507413
3573.508,0.0261224872875,0.112009676869
3575.436,0.0261523622925,0.0998887273668
3577.365,0.0261921036115,0.0881194803368
3579.293,0.0262416700403,0.0777689940656
3581.222,0.0263011129965,0.0728505093628
3583.15,0.0263703708491,0.0709417690478
3585.079,0.0264495154425,0.0699186236458
3587.007,0.0265384647189,0.0605479094851
3588.936,0.0266373109494,0.0667187488909
3590.864,0.0267459516496,0.0839890124664
3592.793,0.0268644995173,0.0978756197589
3594.721,0.0269928316413,0.113050683976
3596.65,0.0271310811462,0.133836320047
3598.578,0.027279104694,0.140558255055
3600.507,0.0274370558361,0.122586647793
3602.435,0.0276047708077,0.0924972710401
3604.364,0.027782423587,0.0735490734311
3606.292,0.0279698299823,0.0568807209122
3608.221,0.0281671843988,0.0403005705795
3610.149,0.028374282218,0.0361099490567
3612.078,0.0285913382716,0.0359114414717
3614.006,0.0288181275146,0.0283192928837
3615.935,0.0290548852054,0.0342168220624
3617.863,0.0293013658721,0.0315573726299
3619.792,0.0295578252001,0.0229311569084
3621.72,0.0298239972907,0.0278215601742
3623.649,0.0301001582559,0.0362207757379
3625.577,0.0303860217702,0.0350579790385
3627.506,0.0306818843726,0.0246507245428
3629.434,0.0309874393107,0.00077688900227
3631.363,0.0313030035502,0.0200186885553
3633.291,0.0316282499121,0.0295192786434
3635.22,0.0319635157889,0.0312650296473
3637.148,0.0323084535746,0.0334972171016
3639.077,0.0326634210885,0.0338905059306
3641.005,0.033028050298,0.0332437580513
3642.934,0.0334027194491,0.033272353835
3644.862,0.0337870400824,0.0335921168973
3646.791,0.0341814108707,0.0194165877141
3648.719,0.0345854229278,-0.00619964510508
3650.648,0.0349994953533,-0.00737587258969
3652.576,0.0354231988341,0.0136325476533
3654.505,0.0358569728968,0.0239506688701
3656.433,0.0363003678014,0.014204736818
3658.362,0.0367538435013,0.0194839508988
3660.29,0.0372169298297,0.0261681909627
3662.219,0.0376901071668,0.0297348397654
3664.147,0.038172884919,0.0304689830684
3666.076,0.0386657638932,0.0311310621454
3668.004,0.0391682330693,0.0238527918979
3669.933,0.0396808136807,0.0026366329988
3671.861,0.0402029742805,0.00234205756021
3673.79,0.0407352565291,0.00602952665095
3675.718,0.0412771085527,-0.0231205837372
3677.647,0.0418290924385,-0.00403221585906
3679.575,0.0423906358859,0.00801930043275
3681.504,0.0429623214088,0.0128818613467
3683.432,0.04354355628,0.0161442532823
3685.361,0.0441349434402,0.0160622161677
3687.289,0.0447358697351,0.00690003443954
3689.218,0.0453469585325,-0.0119034125909
3691.146,0.0459675762512,-0.0117452978726
3693.075,0.0465983666857,-9.28577400269e-05
3695.003,0.0472386758283,0.00744746588807
3696.932,0.0478891679,0.00706858000255
3698.86,0.0485491684664,0.00640857943621
