baseline wavenumber (cm-1),baseline absorbance (cm-1),baseline-subtracted absorbance (cm-1)
3199.379,0.202543212372,1.1990408666e-14
3201.308,0.200604967234,0.00168200335161
3203.236,0.1986775726,0.00291496758038
3205.165,0.196759029098,0.00272949814347
3207.093,0.194851325888,0.0020292967748
3209.021,0.192953465837,0.00257721242078
3210.95,0.191064472237,0.00321582696464
3212.878,0.189186303609,0.00310824809373
3214.807,0.187317011647,0.00235346242567
3216.736,0.185457573057,0.0040344920396
3218.664,0.183608944118,0.00392870876789
3220.593,0.181769207165,0.00275469862678
3222.521,0.17994026965,0.0023795524464
3224.449,0.178121175294,0.00326010439863
3226.378,0.176310988243,0.00360309242004
3228.306,0.174511585311,0.00489506585659
3230.235,0.172721099897,0.00553069430086
3232.164,0.170940467856,0.00589163565172
3234.092,0.169170604612,0.00673559168838
3236.021,0.167409674208,0.00747408198327
3237.949,0.165659502388,0.00678161759585
3239.877,0.163919173727,0.00757279028777
3241.806,0.162187793225,0.00826707385283
3243.734,0.160467155988,0.00910880681407
3245.663,0.158755477123,0.00929819719237
3247.592,0.15705365163,0.00891319361381
3249.52,0.155362554082,0.0105603206783
3251.448,0.153681299692,0.0118569596831
3253.377,0.152009024102,0.0105619857034
3255.305,0.150347461136,0.0109246504582
3257.234,0.148694887182,0.0120490731937
3259.162,0.147053015641,0.0123435273697
3261.091,0.145420143324,0.0123570728893
3263.02,0.14379712438,0.0146906952901
3264.948,0.142184792527,0.015590907463
3266.876,0.140582303833,0.0156048992402
3268.805,0.138988834791,0.015238396585
3270.733,0.13740603752,0.016238963996
3272.662,0.135832270115,0.0165911605932
3274.591,0.134268356083,0.0170573287445
3276.519,0.132715098501,0.0157110614099
3278.448,0.131170886106,0.0166543438545
3280.376,0.129637319948,0.0191234199693
3282.304,0.128113596949,0.0209539255419
3284.233,0.126598934455,0.020322626244
3286.161,0.12509490288,0.0202209770349
3288.09,0.123599942024,0.0208668526793
3290.019,0.122114834541,0.0224404065389
3291.947,0.120640342654,0.0235823400513
3293.875,0.119175693926,0.0246532760528
3295.804,0.117720136344,0.0246825726419
3297.732,0.11627517904,0.0255473217178
3299.661,0.114839323096,0.0241655288197
3301.589,0.113414057216,0.0242287205059
3303.518,0.111997902908,0.0258227783815
3305.447,0.110591601974,0.0280397535303
3307.375,0.109195875782,0.0276220763055
3309.303,0.107809992749,0.0268028648268
3311.232,0.106433241716,0.0268726311231
3313.16,0.105067050108,0.0263152404009
3315.089,0.103710000712,0.0274595130859
3317.017,0.102363500527,0.0301478711501
3318.946,0.101026152768,0.0290481421878
3320.875,0.0996986583822,0.030237154819
3322.803,0.0983816978856,0.0325406714664
3324.731,0.0970745805482,0.032455895546
3326.66,0.095776636064,0.031563402347
3328.588,0.0944892101504,0.0312537394099
3330.517,0.0932109673034,0.0308333064255
3332.445,0.0919432328135,0.0308167995326
3334.374,0.0906846916037,0.0324159856429
3336.302,0.0894366485377,0.0333486542016
3338.231,0.088197808965,0.0330652052875
3340.159,0.0869694573228,0.0341859050547
3342.088,0.0857503193873,0.0350022329224
3344.016,0.0845416591688,0.0362407122049
3345.945,0.0833422228705,0.0363979974873
3347.873,0.0821532540759,0.0358817201483
3349.802,0.0809735194148,0.0350115205125
3351.73,0.0798042420439,0.0344012567937
3353.659,0.07864420902,0.0332141756965
3355.587,0.0774946230729,0.0336026174002
3357.516,0.0763542916862,0.0351053262255
3359.444,0.0752243971629,0.0364894409044
3361.373,0.0741037674133,0.0369414160497
3363.302,0.0729929910364,0.0376220903343
3365.23,0.0718926362015,0.0371587132375
3367.158,0.0708021245258,0.0384301609286
3369.087,0.0697208980506,0.038710821347
3371.015,0.0686500777987,0.0383311210288
3372.944,0.0675885529606,0.038283275605
3374.872,0.0665374241325,0.038564668256
3376.801,0.0654956009317,0.0385552430994
3378.729,0.0644641635274,0.0384949995172
3380.658,0.0634420419637,0.0379417647683
3382.586,0.0624302959832,0.0399324857817
3384.515,0.0614278760568,0.04055584981
3386.443,0.0604358215,0.0414079063884
3388.372,0.0594531032107,0.0425786364031
3390.3,0.0584807400778,0.0415839521288
3392.229,0.0575177234257,0.0406203540028
3394.157,0.0565650517165,0.0422972751813
3396.086,0.0556217367016,0.0436418840403
3398.014,0.0546887564163,0.0433876612528
3399.943,0.0537651430385,0.0427627049348
3401.871,0.052851854177,0.0455808760363
3403.8,0.0519479424364,0.0471675938013
3405.728,0.0510543449986,0.0478372955553
3407.657,0.0501701348953,0.0482479384899
3409.585,0.0492962288813,0.0486669774262
3411.514,0.0484317204151,0.048100676229
3413.442,0.0475775058249,0.0478637152405
3415.371,0.0467326989959,0.0464675435998
3417.299,0.0458981758295,0.047280839636
3419.228,0.0450730706377,0.0482560509634
3421.156,0.0442582388951,0.0485705289205
3423.085,0.0434528353405,0.049510370967
3425.013,0.0426576950217,0.0530796950521
3426.942,0.0418719931042,0.0546538332376
3428.87,0.0410965442092,0.0552443028544
3430.799,0.040330543929,0.0549211491874
3432.727,0.0395747864577,0.0545877527114
3434.656,0.0388284878146,0.0551637289043
3436.584,0.0380924217672,0.0562348803656
3438.513,0.0373658247613,0.0557848878638
3440.441,0.0366494501376,0.0559680571908
3442.37,0.0359425547689,0.054879743826
3444.298,0.0352458715691,0.0551604763537
3446.227,0.0345586778376,0.0542409784851
3448.155,0.0338816860615,0.0536918507828
3450.084,0.0332141939672,0.0566119457276
3452.012,0.0325568936148,0.0577503943666
3453.941,0.0319091031577,0.0568273771819
3455.869,0.0312714942292,0.0569201564329
3457.798,0.0306434054093,0.0583740817028
3459.726,0.0300254879045,0.0596990648095
3461.655,0.0294171007218,0.0588635017244
3463.583,0.0288188746408,0.0581613133709
3465.512,0.0282301890953,0.0595424784474
3467.44,0.0276516544381,0.0607583324213
3469.369,0.0270826705297,0.0604822743808
3471.297,0.0265238272964,0.0605473341309
3473.226,0.0259745450252,0.059307472563
3475.154,0.0254353932156,0.0594362331869
3477.083,0.0249058125816,0.0624776909057
3479.011,0.0243863521958,0.0630198946454
3480.94,0.023876473199,0.0605776863077
3482.868,0.023376704237,0.0609546411587
3484.797,0.0228865268774,0.062707327363
3486.725,0.0224064493392,0.0635285552095
3488.654,0.0219359736167,0.0624964533519
3490.582,0.0214755875023,0.0622447197857
3492.511,0.021024813417,0.0620601961857
3494.439,0.0205841187264,0.0594800680723
3496.368,0.0201530462783,0.0568498850873
3498.296,0.0197320430115,0.0606217424934
3500.225,0.0193206722006,0.0610422106459
3502.153,0.0189193603576,0.059121678761
3504.082,0.0185276911838,0.0585045538379
3506.01,0.0181460707646,0.0613844053296
3507.939,0.017774103228,0.0608845443005
3509.867,0.0174121742326,0.0593759587908
3511.796,0.0170599083332,0.0625681114788
3513.724,0.0167176707616,0.0623387327561
3515.653,0.0163851064994,0.0600957385425
3517.581,0.0160625603515,0.0590299292876
3519.51,0.0157496977266,0.0573201496403
3521.438,0.0154468430025,0.0561649026763
3523.367,0.0151536820147,0.0527933512412
3525.295,0.0148705187144,0.0538139046152
3527.224,0.0145970593638,0.0548222270003
3529.152,0.0143335874873,0.0561101606174
3531.081,0.0140798297738,0.0581389107498
3533.009,0.0138360493211,0.0596487379022
3534.938,0.0136019932449,0.059813553101
3536.866,0.013377904216,0.0589676936815
3538.795,0.0131635497769,0.0600225413987
3540.723,0.0129591521718,0.0593697672662
3542.652,0.0127644993699,0.0571202676371
3544.58,0.0125797931886,0.0548860917806
3546.509,0.0124048420239,0.0516424641522
3548.437,0.0122398272663,0.0526343261755
3550.366,0.0120845777388,0.0541764148822
3552.294,0.0119392544051,0.0536616755454
3554.223,0.0118037065148,0.0575271334731
3556.151,0.0116780746048,0.0636706568215
3558.08,0.0115622283517,0.067259665917
3560.008,0.0114562878655,0.0683375057259
3561.937,0.0113601432495,0.069158910627
3563.865,0.0112738941871,0.0702554700098
3565.794,0.0111974512084,0.062733611159
3567.722,0.0111308935698,0.0492769705766
3569.651,0.0110741522282,0.0534441940773
3571.579,0.0110272860134,0.0586234771525
3573.508,0.010990246309,0.0578993726135
3575.436,0.010963071518,0.0559226052231
3577.365,0.0109457334508,0.0530424400052
3579.293,0.0109382500836,0.0518121795131
3581.222,0.0109406136535,0.0532097957268
3583.15,0.0109528217101,0.0552854275571
3585.079,0.0109748869172,0.0559193817576
3587.007,0.0110067863976,0.0527655779004
3588.936,0.0110485532419,0.0564532156856
3590.864,0.0111001441461,0.0691955194544
3592.793,0.0111616126276,0.0771326358309
3594.721,0.0112328949556,0.0890263792787
3596.65,0.0113140650743,0.10386939798
3598.578,0.011405038826,0.109569387536
3600.507,0.0115059105819,0.0955490777937
3602.435,0.0116165757574,0.0744281022978
3604.364,0.0117371491505,0.0618295141468
3606.292,0.0118675057498,0.0514312913795
3608.221,0.0120077807801,0.0390652001155
3610.149,0.0121578288032,0.0382687354341
3612.078,0.0123178054706,0.0383559032123
3614.006,0.0124875449175,0.0311478538493
3615.935,0.0126672232222,0.0310081027659
3617.863,0.0128566540929,0.0289936440978
3619.792,0.0130560340347,0.0228481406343
3621.72,0.0132651563292,0.0265266156308
3623.649,0.0134842379081,0.0301521716744
3625.577,0.0137130516264,0.0308507813868
3627.506,0.0139518348426,0.0265217323261
3629.434,0.0142003399847,0.00933549343291
3631.363,0.014458824838,0.0183815673585
3633.291,0.0147270214039,0.0256535507178
3635.22,0.0150052078944,0.0285220335894
3637.148,0.0152930958841,0.031053310666
3639.077,0.0155909840118,0.030715495317
3641.005,0.0158985634252,0.0339882252132
3642.934,0.0162161531902,0.0327725256737
3644.862,0.0165434240274,0.0310225316989
3646.791,0.0168807154295,0.0206357103261
3648.719,0.0172276776905,0.00429713783562
3650.648,0.0175846707298,0.00241482386233
3652.576,0.0179513244146,0.0195944149971
3654.505,0.0183280190911,0.0284959978906
3656.433,0.0187143641997,0.0229428681869
3658.362,0.0191107605133,0.0230453094351
3660.29,0.0195167970457,0.0256403848
3662.219,0.0199328949966,0.0252637086626
3664.147,0.0203586229527,0.024828377957
3666.076,0.0207944225408,0.0231250154457
3668.004,0.0212398419207,0.0181011062244
3669.933,0.021695343146,0.00353057416931
3671.861,0.0221604539497,0.00764294239112
3673.79,0.0226356568121,0.0124431868147
3675.718,0.0231204590397,-0.00655217843722
3677.647,0.0236153635392,0.000786738957465
3679.575,0.0241198571906,0.0101720663917
3681.504,0.0246344633274,0.0147625850907
3683.432,0.0251586484025,0.0165809654659
3685.361,0.0256929561764,0.0127968851255
3687.289,0.0262368326754,0.00716203521102
3689.218,0.0267908420865,-0.00568298804829
3691.146,0.0273544100092,-0.0043224682322
3693.075,0.0279281210575,0.00040453839865
3695.003,0.028511380404,0.00430525762285
3696.932,0.0291047930895,0.00442093217074
3698.86,0.0297077438598,0.00381798140045
