baseline wavenumber (cm-1),baseline absorbance (cm-1),baseline-subtracted absorbance (cm-1)
3199.379,0.23060403998,8.82627304577e-15
3201.308,0.228572843287,-1.17193619836e-05
3203.236,0.226552545285,0.00145105435129
3205.165,0.224541050229,0.00291868975806
3207.093,0.222540443651,0.00347241718629
3209.021,0.220549680232,0.00340488746216
3210.95,0.218567735078,0.00367550249817
3212.878,0.216596663083,0.00426952130271
3214.807,0.214634419566,0.00642216112916
3216.736,0.212682029421,0.00712568708115
3218.664,0.210740497114,0.00656089381318
3220.593,0.208807808607,0.00838908801685
3222.521,0.206885967724,0.00929345493618
3224.449,0.20497397,0.00879932279361
3226.378,0.203070831395,0.00936018139621
3228.306,0.201178525095,0.0102933418237
3230.235,0.199295088126,0.0102371688108
3232.164,0.197421504531,0.0100756297391
3234.092,0.195558737919,0.0107281146706
3236.021,0.193704855961,0.0114551705998
3237.949,0.191861780773,0.0113463690841
3239.877,0.190028548744,0.0124525444273
3241.806,0.188204216687,0.0130730601702
3243.734,0.186390676082,0.012704682833
3245.663,0.184586045663,0.0131570975538
3247.592,0.182791268616,0.0140604892648
3249.52,0.181007267699,0.0141315489638
3251.448,0.179233109942,0.0148275981031
3253.377,0.177467882797,0.0154339974017
3255.305,0.175713416463,0.0151894003397
3257.234,0.173967890955,0.0145041996297
3259.162,0.172233116046,0.0150194281636
3261.091,0.170507292175,0.0162996869263
3263.02,0.168791321677,0.016417604024
3264.948,0.167086086455,0.016876253658
3266.876,0.165390694393,0.0181985381505
3268.805,0.163704273797,0.0188366886693
3270.733,0.162028573158,0.0191666494601
3272.662,0.160361854199,0.0190312785332
3274.591,0.158704988612,0.0185048562187
3276.519,0.157058827662,0.0183966661518
3278.448,0.155421663713,0.0190559381602
3280.376,0.153795194187,0.0197703436619
3282.304,0.15217856782,0.0215785161252
3284.233,0.150570953772,0.0224256807425
3286.161,0.148974018829,0.0229146440635
3288.09,0.147386106418,0.0228119644561
3290.019,0.145808047381,0.0227903198523
3291.947,0.144240652126,0.0226584933976
3293.875,0.14268310003,0.0247824346734
3295.804,0.141134590894,0.0253398726555
3297.732,0.139596730222,0.0256743399919
3299.661,0.138067922723,0.0261509026771
3301.589,0.136549753475,0.0270158665013
3303.518,0.135040647613,0.0280569336407
3305.447,0.133541395124,0.0287648850184
3307.375,0.132052765564,0.0285485030453
3309.303,0.130573979164,0.0268632997905
3311.232,0.129104276577,0.0263379684783
3313.16,0.1276451816,0.0278480350074
3315.089,0.12619518065,0.0286131509363
3317.017,0.124755777097,0.0294251133765
3318.946,0.123325477784,0.0303295826761
3320.875,0.121905031843,0.0300006402052
3322.803,0.120495167979,0.029230955597
3324.731,0.119095147273,0.0298004457929
3326.66,0.117704251235,0.0294072641073
3328.588,0.116323921953,0.0301045361441
3330.517,0.114952727552,0.0308566594614
3332.445,0.113592089694,0.0315076307225
3334.374,0.11224059693,0.0317327238222
3336.302,0.110899650496,0.0329148493993
3338.231,0.109567859369,0.0331305505004
3340.159,0.108246604359,0.0334276320291
3342.088,0.106934514869,0.0342301702504
3344.016,0.105632951282,0.0336654201442
3345.945,0.10434056343,0.0332189668701
3347.873,0.103058691267,0.0348341409129
3349.802,0.101786005052,0.0357087143165
3351.73,0.100523824313,0.0361187352734
3353.659,0.0992708397345,0.0364717687788
3355.587,0.0980283504195,0.0369952079785
3357.516,0.0967950674783,0.0365997637232
3359.444,0.0955722695871,0.0368892911874
3361.373,0.0943586882832,0.0373120882598
3363.302,0.0931549603518,0.0385251018555
3365.23,0.091961702149,0.0376860576889
3367.158,0.0907782871053,0.0375017855864
3369.087,0.0896041090757,0.0381964081536
3371.015,0.0884403854558,0.0388429024452
3372.944,0.0872859090635,0.038629901379
3374.872,0.0861418768674,0.0387434240343
3376.801,0.0850071021122,0.0392770944349
3378.729,0.0838827613399,0.0400428345223
3380.658,0.0827676882219,0.0405001876431
3382.586,0.0816630388734,0.0412859721003
3384.515,0.0805676673926,0.0415853695823
3386.443,0.0794827094679,0.043031339599
3388.372,0.0784070396242,0.0424690350246
3390.3,0.0773417731233,0.0420549208028
3392.229,0.0762858049168,0.0426692171004
3394.157,0.0752402298397,0.0438121571038
3396.086,0.0742039632704,0.0432609839582
3398.014,0.0731780796171,0.0434477678702
3399.943,0.072161514685,0.0445399251696
3401.871,0.0711553224555,0.045883050369
3403.8,0.0701584591606,0.0474664796806
3405.728,0.0691719583548,0.0489748928369
3407.657,0.0681947966971,0.050017511963
3409.585,0.0672279873151,0.0491059750809
3411.514,0.0662705272946,0.0480281726425
3413.442,0.0653234093364,0.0481770100387
3415.371,0.0643856509531,0.0472661628444
3417.299,0.0634582244187,0.0467452773637
3419.228,0.0625401676725,0.047242386322
3421.156,0.0616324325619,0.0487963435617
3423.085,0.0607340774529,0.0496406342267
3425.013,0.0598460337661,0.0507328437064
3426.942,0.0589673802943,0.050461989944
3428.87,0.0580990280313,0.051148403296
3430.799,0.0572400761967,0.050489776323
3432.727,0.0563914153575,0.0497469784358
3434.656,0.0555521651601,0.0494005502939
3436.584,0.0547231957446,0.0505621890321
3438.513,0.0539036471844,0.051871253214
3440.441,0.0530943691927,0.0538075669225
3442.37,0.0522945222697,0.0521181079113
3444.298,0.0515049357018,0.0514098263028
3446.227,0.050724790416,0.0531435956887
3448.155,0.0499548952719,0.0552504587506
3450.084,0.0491944516232,0.0562001454272
3452.012,0.0484442479029,0.0574359855492
3453.941,0.0477035058914,0.0576069365493
3455.869,0.046972993595,0.0571754302535
3457.798,0.0462519532206,0.0573063049746
3459.726,0.0455411323479,0.058379745544
3461.655,0.0448397936108,0.0595581234927
3463.583,0.0441486641619,0.0605167443794
3465.512,0.043467027062,0.0606040919707
3467.44,0.0427955890369,0.0622280008143
3469.369,0.0421336535741,0.0648684433016
3471.297,0.0414819069728,0.066773492482
3473.226,0.0408396731472,0.0662992798129
3475.154,0.0402076179697,0.0667180477883
3477.083,0.0395850857813,0.0685693840587
3479.011,0.0389727220275,0.0711966006816
3480.94,0.0383698914763,0.0719604712831
3482.868,0.0377772191464,0.0730405973071
3484.797,0.0371940902324,0.0754940344618
3486.725,0.0366211093262,0.0761299915335
3488.654,0.0360576820494,0.0732625108632
3490.582,0.035504392567,0.0727809922097
3492.511,0.0349606669274,0.0731169524198
3494.439,0.0344270688688,0.072688364136
3496.368,0.0339030448663,0.0723494888584
3498.296,0.0333891382315,0.0735709512352
3500.225,0.0328848158662,0.0740932018873
3502.153,0.0323906006552,0.0737270690169
3504.082,0.0319059799271,0.0738745820355
3506.01,0.0314314561399,0.0772911971067
3507.939,0.030966537049,0.0797476238512
3509.867,0.0305117046856,0.0837565206586
3511.796,0.0300664872319,0.0881342536642
3513.724,0.0296313462923,0.0899933479134
3515.653,0.0292058304757,0.0907377985171
3517.581,0.0287903809599,0.0927262892016
3519.51,0.0283845667805,0.096572237581
3521.438,0.0279888086885,0.100407326071
3523.367,0.0276026961463,0.101798051739
3525.295,0.0272266294781,0.103190274835
3527.224,0.0268602185731,0.101886653587
3529.152,0.0265038433286,0.100217237261
3531.081,0.0261571340608,0.0984934216112
3533.009,0.0258204502401,0.0972223609712
3534.938,0.0254934426095,0.0944330968467
3536.866,0.0251764502126,0.0920849602857
3538.795,0.0248691442192,0.0916748552216
3540.723,0.0245718432461,0.0923973326818
3542.652,0.0242842388899,0.0894015093453
3544.58,0.0240066293406,0.0835335957241
3546.509,0.0237387266215,0.0795496986249
3548.437,0.023480808496,0.0790454373976
3550.366,0.0232326074141,0.0792846568621
3552.294,0.0229943807124,0.0813609348674
3554.223,0.0227658812677,0.0874969271478
3556.151,0.0225473459898,0.0971836248637
3558.08,0.0223385481822,0.108223106952
3560.008,0.0221397043281,0.121247277569
3561.937,0.0219506081578,0.133540882022
3563.865,0.0217714557274,0.138612335424
3565.794,0.0216020611943,0.13368268753
3567.722,0.0214426001877,0.134287070603
3569.651,0.0212929072918,0.15016978929
3571.579,0.021153137709,0.16012259445
3573.508,0.0210231464502,0.1549335985
3575.436,0.0209030682913,0.137426025858
3577.365,0.0207927786697,0.115190956565
3579.293,0.0206923919345,0.0968835149642
3581.222,0.0206018039501,0.0836466059192
3583.15,0.0205211086387,0.0753318654299
3585.079,0.0204502222915,0.0699005500577
3587.007,0.0203892184039,0.0673873245471
3588.936,0.0203380336938,0.0736700043295
3590.864,0.02029672123,0.0852944579131
3592.793,0.0202652381572,0.0982132688674
3594.721,0.0202436171172,0.118389537982
3596.65,0.0202318356815,0.140136833501
3598.578,0.0202299060653,0.144991950522
3600.507,0.0202378262668,0.124117835297
3602.435,0.0202555880743,0.093611504957
3604.364,0.020283209913,0.0706606637153
3606.292,0.0203206631444,0.0526847537844
3608.221,0.0203679866203,0.0418989456506
3610.149,0.0204251312754,0.0430517331965
3612.078,0.0204921563885,0.0404276031698
3614.006,0.0205689924674,0.0342823739965
3615.935,0.0206557192177,0.0332071800624
3617.863,0.0207522467204,0.0299492280821
3619.792,0.0208586751078,0.0276338110877
3621.72,0.0209748940344,0.0315346467499
3623.649,0.021101024059,0.0333134583622
3625.577,0.0212369344093,0.0313499111908
3627.506,0.0213827660711,0.024357535879
3629.434,0.0215383678452,0.0179616321548
3631.363,0.0217039011442,0.0239698250038
3633.291,0.0218791943421,0.0256111949778
3635.22,0.0220644292783,0.0284467890065
3637.148,0.0222594138999,0.0303449406118
3639.077,0.0224643504733,0.0294957040455
3641.005,0.0226790265188,0.0295500571466
3642.934,0.0229036647293,0.0282418933891
3644.862,0.0231380321986,0.0260163677455
3646.791,0.0233823720463,0.0177136648587
3648.719,0.0236364309394,0.00758464965056
3650.648,0.0239004724243,0.00758904319744
3652.576,0.0241742227411,0.0186885716952
3654.505,0.0244579658632,0.0199736060946
3656.433,0.0247514076038,0.0163047187679
3658.362,0.0250548523631,0.0190969264864
3660.29,0.0253679855276,0.0215081240691
3662.219,0.025691131924,0.0219839921411
3664.147,0.0260239565122,0.0219157932606
3666.076,0.0263668045459,0.0202294420467
3668.004,0.0267193205579,0.0130696638553
3669.933,0.0270818702287,0.0026574881273
3671.861,0.0274540776645,0.0102145460861
3673.79,0.0278363289726,0.00881387722021
3675.718,0.0282282278321,-0.00390296747008
3677.647,0.0286301807774,0.0031447895169
3679.575,0.0290417710607,0.00841870283317
3681.504,0.0294634256431,0.0118710260239
3683.432,0.0298947073503,0.0126264710938
3685.361,0.0303360635699,0.0102802431331
3687.289,0.0307870367008,0.00291311008047
3689.218,0.0312480945576,-0.00709855237544
3691.146,0.0317187591123,-0.00429106637452
3693.075,0.0321995186063,0.00220189328998
3695.003,0.0326898745848,0.00516600016181
3696.932,0.033190335716,0.00391062884684
3698.86,0.0337003831183,0.00340058144452
