baseline wavenumber (cm-1),baseline absorbance (cm-1),baseline-subtracted absorbance (cm-1)
3199.3790000000004,0.15662943495398807,1.9539925233402755e-14
3201.308,0.15479408428654295,0.002684941287093956
3203.236,0.1529695307828689,0.004201195993638773
3205.165,0.1511538817526059,0.00639539551414714
3207.093,0.14934901967272296,0.004996982551071394
3209.0209999999997,0.1475540007520486,0.0033703902314736744
3210.95,0.1457679016235538,0.003997083719617489
3212.8779999999997,0.143992574126667,0.007784945331535287
3214.8070000000002,0.14222617663535786,0.010365049484119648
3216.736,0.1404696325166519,0.008942578137345336
3218.664,0.1387238447081387,0.008091074932010223
3220.593,0.13698700222661486,0.010265600623884819
3222.5209999999997,0.13526090584189276,0.011933069696365983
3224.449,0.13354465261637927,0.011779313824537674
3226.3779999999997,0.1318373600366236,0.008440108880791719
3228.3059999999996,0.1301407982349012,0.006841916816143545
3230.235,0.12845320729233123,0.008464815552103655
3232.164,0.12677546972236087,0.01045742222143664
3234.092,0.12510844760901207,0.010247864935210682
3236.0209999999997,0.12345041167623094,0.010416969300216294
3237.949,0.1218030809866697,0.012723857252488813
3239.877,0.12016559345631705,0.015692589097002774
3241.8059999999996,0.1185371074253041,0.0126035981240733
3243.7340000000004,0.11691931131874256,0.010761877400553566
3245.663,0.11531052692491173,0.01201889792093791
3247.592,0.11371159590368052,0.015765306956927017
3249.52,0.11212333948549258,0.015508824670980914
3251.448,0.11054492622651324,0.014534422808156755
3253.377,0.10897554510705021,0.015581212196092764
3255.305,0.10741682327186197,0.015286603393456222
3257.2340000000004,0.10586714378958462,0.015400924541558059
3259.1620000000003,0.10432811337818748,0.017178507464832293
3261.091,0.10279813553309225,0.016723243219560313
3263.02,0.10127801106060019,0.017374571573585573
3264.948,0.09976852033757666,0.018800164591159962
3266.8759999999997,0.09826887277376173,0.01992025084900062
3268.805,0.0967782982030343,0.021669088838307538
3270.7329999999997,0.09529834206301047,0.02100712645007885
3272.6620000000003,0.09382746912946871,0.017278868685147053
3274.591,0.09236644956853723,0.016312414274583187
3276.5190000000002,0.0909160331168799,0.01682075046747178
3278.448,0.08947471519313055,0.019287035539710118
3280.3759999999997,0.08804399016526787,0.021663884089254903
3282.304,0.08662310829661024,0.02234434343693792
3284.2329999999997,0.08521134027462907,0.0218583049290495
3286.1609999999996,0.08381014982976254,0.019372403490766743
3288.09,0.08241808344495993,0.017475275495703713
3290.0190000000002,0.08103587043276406,0.02069818394912115
3291.947,0.07966421967627468,0.020370653466350586
3293.875,0.07830241207899036,0.021809788466849778
3295.804,0.0769497489685591,0.0243375248614206
3297.732,0.07560763279506943,0.02514997359328497
3299.6609999999996,0.07427467132182031,0.025975000163066753
3301.5890000000004,0.07295224657211818,0.024173498904480173
3303.518,0.07163898673605829,0.020326544447605954
3305.447,0.07033558027259801,0.021119994376142426
3307.375,0.06904269521126949,0.02488381848528265
3309.303,0.06775965330914957,0.026832987952347676
3311.232,0.06648579674745747,0.025797635982755196
3313.16,0.06522244626912865,0.023645945523047107
3315.0890000000004,0.06396829134461868,0.021928302206376316
3317.0170000000003,0.06272463229008096,0.023664228520592356
3318.946,0.06149017900275666,0.024388219865128846
3320.875,0.06026557908803554,0.023780716272318703
3322.803,0.059051459721871424,0.022145851508290626
3324.7309999999998,0.05784718351491236,0.024209826492162634
3326.66,0.05665213350195941,0.02705553858941734
3328.5879999999997,0.05546754871879145,0.027409738251793048
3330.5170000000003,0.05429220034302418,0.026368367735414733
3332.445,0.053127306983647316,0.028028560801654834
3334.3740000000003,0.05197166024506217,0.026197752470998648
3336.302,0.05082645830947641,0.024938729196839926
3338.2309999999998,0.04969051320808049,0.02789060475411409
3340.159,0.04856500269628228,0.027993675156744224
3342.0879999999997,0.04744875923206848,0.024560742435776106
3344.0159999999996,0.046342940144064926,0.02679362106082639
3345.945,0.045246398317033254,0.02970659875160031
3347.873,0.0441602706528208,0.030826083334846377
3349.802,0.0430834304629748,0.029132783021306174
3351.73,0.0420169942225499,0.029182844046932832
3353.659,0.04095985566988958,0.030476513480013345
3355.587,0.03991311085325577,0.0317643378478456
3357.5159999999996,0.03887567393777758,0.03039957118503578
3359.4440000000004,0.03784862054493843,0.029691053972396464
3361.373,0.03683088526664591,0.03034236854918193
3363.302,0.03582300336095656,0.030828164131208702
3365.23,0.03482548965648746,0.03314934103187683
3367.158,0.03383781911122696,0.03210325033181283
3369.087,0.03285948710730224,0.030859809364949697
3371.015,0.031891507985832845,0.034446812038426255
3372.9440000000004,0.030932877619097354,0.03287132737433174
3374.8720000000003,0.029984589921415505,0.030429339119319998
3376.801,0.02904566119186569,0.030179043144533235
3378.7290000000003,0.028117064917974943,0.03230343442499395
3380.658,0.02719783782560725,0.033153926047837956
3382.586,0.02628893297551116,0.03672481411839268
3384.515,0.02538940752032559,0.03706636929156115
3386.4429999999998,0.024500194094017047,0.034025531166267164
3388.3720000000003,0.023620370276020708,0.03177789112092588
3390.3,0.022750848273499713,0.03416212049229328
3392.2290000000003,0.02189072609268905,0.03421712794551901
3394.157,0.02104089551396271,0.03618896398265026
3396.086,0.020200474970330617,0.03626419701996486
3398.014,0.01937033581539538,0.036954338196530934
3399.9429999999998,0.018549616908948963,0.03665658949962225
3401.8709999999996,0.017739169177804825,0.03703491350692101
3403.8,0.016938151908544086,0.03902212303333297
3405.728,0.01614739560119105,0.03777355860885612
3407.657,0.015366079969112434,0.03749553935768368
3409.585,0.0145950150855505,0.04039689838862248
3411.514,0.01383340109065756,0.03995665248257518
3413.442,0.013082027630886728,0.03973410498813568
3415.3709999999996,0.012340115273179464,0.04086720303269287
3417.2990000000004,0.01160843323719618,0.0406421479818464
3419.228,0.010886222516674593,0.037708743620997964
3421.156,0.010174231904482411,0.03654112238642959
3423.085,0.0094717228211465,0.033264049947477226
3425.013,0.008779423632741867,0.033025893257988326
3426.942,0.008096616186595185,0.034350063283736354
3428.87,0.007424008421981654,0.035164185250311064
3430.7990000000004,0.006760902613013542,0.037853471186641396
3432.7270000000003,0.006107986272191113,0.041063245912180246
3434.656,0.00546458210041223,0.04001555537052637
3436.5840000000003,0.004831357183380902,0.0372246420079656
3438.513,0.004207654648784143,0.03568216643683142
3440.441,0.0035941211555439168,0.03694514903549928
3442.37,0.0029901202581292807,0.035233876507259954
3444.298,0.0023962781886837092,0.03356500756892222
3446.2270000000003,0.0018119789284547494,0.03363631784704202
3448.155,0.0012378282827967269,0.0378347482864938
3450.0840000000003,0.0006732306597498905,0.03964264925534078
3452.012,0.00011877143788296962,0.03803648985798169
3453.941,-0.00042612454797463784,0.03537558376155925
3455.869,-0.0009608923460540097,0.03827566036384367
3457.798,-0.0014860866947294937,0.04218203332365844
3459.7259999999997,-0.0020011630690142113,0.04022111657149008
3461.655,-0.002506655780504019,0.03635887452102704
3463.583,-0.003002040730997635,0.0384195076267817
3465.512,-0.0034878318053053192,0.04060751238753513
3467.44,-0.003963525332011386,0.04109280866365905
3469.369,-0.0044296147691298415,0.042191668746689004
3471.297,-0.004885616872044807,0.044934136027002136
3473.2259999999997,-0.005332004671977586,0.04409122836549706
3475.1540000000005,-0.005768315351105002,0.04291882581304707
3477.083,-0.006195001513852105,0.0477526685511509
3479.011,-0.00661162076918842,0.04921800912459062
3480.94,-0.0070186052947533994,0.04605529790568896
3482.868,-0.00741553312629506,0.04551772659642461
3484.797,-0.007802816014677916,0.04802317384344512
3486.725,-0.008180052422428474,0.04751796812039588
3488.6540000000005,-0.008547633673625654,0.04593113716093944
3490.5820000000003,-0.008905178657592216,0.049449502927277234
3492.511,-0.009253058271600167,0.05284246492276656
3494.4390000000003,-0.009590911831772075,0.05241765801594234
3496.368,-0.009919089808601456,0.050559441572474384
3498.296,-0.010237251944982262,0.05360427913592458
3500.225,-0.010545728284622413,0.053142513890605425
3502.153,-0.010844198997212118,0.04980609124425506
3504.0820000000003,-0.011132973699670146,0.05161260576274396
3506.01,-0.011411752988468749,0.058392951815921634
3507.9390000000003,-0.011680826053744653,0.06107989610327369
3509.867,-0.011939913918752154,0.06247564625474711
3511.796,-0.012189285346842382,0.06330926917379065
3513.724,-0.012428681788058782,0.06262730707866737
3515.653,-0.012658351578963334,0.060149506941340025
3517.5809999999997,-0.012878056596392184,0.06126125683898742
3519.51,-0.01308802475011106,0.06547759313179435
3521.438,-0.01328803834374881,0.06722314397399165
3523.367,-0.013478304860282009,0.06973070554763616
3525.295,-0.013658627030128656,0.07075556425847118
3527.224,-0.01382919190947618,0.06635572582234239
3529.152,-0.013989822655535278,0.06679584711727538
3531.0809999999997,-0.014140685897700678,0.06691537507186363
3533.009,-0.014281625219961569,0.06660144731639273
3534.938,-0.014412786824944845,0.06439155969464982
3536.866,-0.014534034723418188,0.06435966901028722
3538.795,-0.014645494691215788,0.06460556746994728
3540.723,-0.014747051165898029,0.06576494260428767
3542.652,-0.014838809496509953,0.06375521503577986
3544.58,-0.014920674547401092,0.05568889450090264
3546.509,-0.014992731240830892,0.05101011727135685
3548.437,-0.01505490486793093,0.05346893499023864
3550.366,-0.015107259924175054,0.052928446621839154
3552.2940000000003,-0.01514974212748399,0.05487682188084397
3554.223,-0.015182395546542438,0.0634549114668892
3556.151,-0.015205186326063824,0.07049023636144236
3558.08,-0.015218138107936596,0.07461821897319387
3560.008,-0.015221237463670434,0.0821144953227626
3561.937,-0.015214487608353977,0.09366996117552162
3563.865,-0.015197895540296713,0.099276537003957
3565.7940000000003,-0.015171444047798133,0.09412221732182946
3567.722,-0.015135160555949767,0.09004570336399498
3569.651,-0.01508900742626551,0.09620848584534869
3571.579,-0.015033032510626043,0.10145423942460496
3573.508,-0.014967177743759663,0.09766049625179507
3575.4359999999997,-0.014891511404325541,0.08386047936146612
3577.365,-0.014805955000277038,0.0705509261920283
3579.2929999999997,-0.014710597237055367,0.0665270331007961
3581.222,-0.014605339195817635,0.06444866275793171
3583.15,-0.014490290008804863,0.0605273869460321
3585.079,-0.014365330330385007,0.056188336496360236
3587.007,-0.014230589719581133,0.055782697270374104
3588.9359999999997,-0.014085928403979153,0.06561074393010768
3590.864,-0.013931496369384178,0.07653737931692195
3592.7929999999997,-0.01376713341659297,0.09086002738202259
3594.7209999999995,-0.013593009958210445,0.11126004725730976
3596.65,-0.01340894536823356,0.13038054144626798
3598.578,-0.013215130486059934,0.1318146452945097
3600.507,-0.013011364258900926,0.1098080892159401
3602.435,-0.012797857952936198,0.08180473149988776
3604.364,-0.012574390088591514,0.06138567079211832
3606.292,-0.012341192358835684,0.04587500414494672
3608.2209999999995,-0.012098022857305324,0.03651832003712796
3610.1490000000003,-0.011845133703758393,0.033646912739440094
3612.078,-0.011582262565042356,0.030859529319311907
3614.006,-0.011309681987707876,0.02911570644944783
3615.935,-0.011027109211809716,0.026407681333511235
3617.863,-0.010734837210680581,0.02201099206764967
3619.792,-0.010432562797596745,0.01875107083358074
3621.72,-0.010120599372680061,0.02532377333406588
3623.6490000000003,-0.009798623322410549,0.028044352625957725
3625.577,-0.009466968473706316,0.026532570414471657
3627.506,-0.009125290786251128,0.02397063597982152
3629.434,-0.008773944513748688,0.017852585977408797
3631.363,-0.008412565189114929,0.019625544063065714
3633.2909999999997,-0.00804152749282494,0.01838116157753067
3635.22,-0.007660446531001952,0.01849992899334829
3637.1479999999997,-0.007269717410920862,0.02465271549037018
3639.077,-0.00686893481191575,0.024909468522619438
3641.005,-0.006458514268043558,0.023500867447058482
3642.934,-0.00603803003185277,0.022859519974235187
3644.862,-0.005607918064189477,0.020043377479936897
3646.7909999999997,-0.005167732190816565,0.011759261555012834
3648.719,-0.00471792879936217,0.010398713192366849
3650.6479999999997,-0.00425804128880003,0.01124479960275826
3652.5759999999996,-0.0037885464735580854,0.015705558502264072
3654.505,-0.0033089573258138216,0.016689630529088006
3656.433,-0.0028197710867807757,0.01438704087349807
3658.362,-0.0023204803018508358,0.015997322513515044
3660.29,-0.0018116026390266882,0.019426077520254825
3662.219,-0.001292610216911072,0.020348508326684556
3664.147,-0.0007640411302958228,0.019507597180027147
3666.0759999999996,-0.00022534707099808315,0.015136395286907245
3668.0040000000004,0.0003229134394082678,0.009439039456577536
3669.933,0.0008813091358952363,0.006317720481004763
3671.861,0.001449261070092689,0.007881073509912628
3673.79,0.002027358403758228,0.0036109717286585408
3675.718,0.0026150017617467824,-0.0026150017617467824
3677.647,0.003212800732597998,0.0021809119935713994
3679.575,0.003820135514377654,0.005151864889947788
3681.5040000000004,0.0044376361224145455,0.005530017774280083
3683.4320000000002,0.00506466232798175,0.007149529524842713
3685.361,0.005701864573204318,0.0063192614755163135
3687.289,0.0063485822025661776,0.0005340620913782956
3689.218,0.007005486084970869,-0.006262536524676232
3691.1459999999997,0.007671895138120277,-0.0021225167897940267
3693.075,0.008348500657710645,0.00296960305198235
3695.0029999999997,0.009034601134651155,0.0038158992191341667
3696.9320000000002,0.009730908291427198,0.005068444786505477
3698.86,0.01043670019215881,0.0043626528857738656
