baseline wavenumber (cm-1),baseline absorbance (cm-1),baseline-subtracted absorbance (cm-1)
3199.379,0.18133225513,5.3290705182e-15
3201.308,0.179429521668,0.00300806046031
3203.236,0.177537620302,0.00718794322749
3205.165,0.175654588478,0.0099453306567
3207.093,0.173782378536,0.00949064279257
3209.021,0.171920011752,0.00582030968694
3210.95,0.17006652983,0.00784714650681
3212.878,0.168223854471,0.0119222084021
3214.807,0.166390074185,0.0111283732017
3216.736,0.164566147273,0.0104085823342
3218.664,0.162753011602,0.0124370217553
3220.593,0.160948786326,0.0143458664587
3222.521,0.159155342079,0.0134434651586
3224.449,0.157371740991,0.0127525893437
3226.378,0.155597065617,0.0109141038967
3228.306,0.153833155953,0.0119876264185
3230.235,0.152078182216,0.0130279534351
3232.164,0.150333061852,0.0140655027893
3234.092,0.148598691877,0.0181783221738
3236.021,0.14687327315,0.0197890133154
3237.949,0.145158594598,0.0189983850849
3239.877,0.143453759205,0.0191010775484
3241.806,0.14175789038,0.0153243900204
3243.734,0.140072746411,0.0168897523257
3245.663,0.138396579223,0.0219900577931
3247.592,0.136730265408,0.0236073470455
3249.52,0.135074661127,0.0226980064156
3251.448,0.133428900006,0.0214255425295
3253.377,0.131792136092,0.0196846656869
3255.305,0.130166066394,0.0208396952552
3257.234,0.128549004118,0.0215429801131
3259.162,0.126942625844,0.0211297485619
3261.091,0.125345265205,0.0185761944127
3263.02,0.123757757939,0.01795810176
3264.948,0.122180919353,0.0195354457534
3266.876,0.120613923927,0.0234161983818
3268.805,0.119055966562,0.0252152352977
3270.733,0.11750866256,0.0264562621346
3272.662,0.115970406832,0.0274501935924
3274.591,0.114442004477,0.0254250732545
3276.519,0.112924240163,0.0218993724924
3278.448,0.111415539445,0.0207769198693
3280.376,0.109917466555,0.0232529569768
3282.304,0.108429236824,0.0280096593654
3284.233,0.106950086008,0.0290132213812
3286.161,0.1054815477,0.0271824571515
3288.09,0.104022098522,0.0264085089786
3290.019,0.102572502716,0.0283655342803
3291.947,0.101133504097,0.0268580050514
3293.875,0.0997043486367,0.0265975820213
3295.804,0.0982843027323,0.0269047198089
3297.732,0.0968748386963,0.0248865077102
3299.661,0.0954744944291,0.0228591758428
3301.589,0.0940847218169,0.0275426915057
3303.518,0.0927040791868,0.0320937576675
3305.447,0.0913332899294,0.0311351220791
3307.375,0.0899730570056,0.0299172694879
3309.303,0.0886226672409,0.0301446429784
3311.232,0.0872814278853,0.0310294990328
3313.16,0.0859507295444,0.0332840829493
3315.089,0.0846291918259,0.0317460229724
3317.017,0.0833181849089,0.0309509953196
3318.946,0.0820163488276,0.0323311696198
3320.875,0.0807243661189,0.0359161878081
3322.803,0.0794428988902,0.0352614375093
3324.731,0.0781712748208,0.0347762638429
3326.66,0.0769088420138,0.0351749546101
3328.588,0.0756569093681,0.0357445866391
3330.517,0.0744141781984,0.0366254457781
3332.445,0.0731819369765,0.0404711510655
3334.374,0.071958907444,0.0381932203232
3336.302,0.0707463576459,0.0367827033063
3338.231,0.0695430297505,0.0359618727058
3340.159,0.0683501713762,0.0357481809942
3342.088,0.067166545118,0.0335920720861
3344.016,0.0659933781675,0.0368652087121
3345.945,0.0648294535465,0.04234127323
3347.873,0.0636759780197,0.0427017638179
3349.802,0.0625317550359,0.0438955167724
3351.73,0.061397970933,0.0457217096492
3353.659,0.0602734495864,0.0432800731065
3355.587,0.0591593569072,0.0459614355723
3357.516,0.0580545371978,0.0475251656224
3359.444,0.0569601359424,0.0448750000123
3361.373,0.0558750178701,0.0421619779855
3363.302,0.0547997531705,0.0431073528641
3365.23,0.0537348916035,0.0434636326055
3367.158,0.0526798731957,0.0426349959036
3369.087,0.0516341583978,0.0420325756566
3371.015,0.0505988314138,0.0401860669992
3372.944,0.0495728182531,0.0386375324999
3374.872,0.0485571826929,0.0411997161244
3376.801,0.0475508711694,0.045870234663
3378.729,0.046554927033,0.0482990100942
3380.658,0.0455683171467,0.0448476335255
3382.586,0.0445920644341,0.0461493689026
3384.515,0.0436251561849,0.0483995077189
3386.443,0.0426685948961,0.0456696240466
3388.372,0.0417213882841,0.0458011023658
3390.3,0.0407845184191,0.047139266075
3392.229,0.0398570134443,0.0459470904676
3394.157,0.0389398350031,0.0470896808162
3396.086,0.0380320316654,0.04798181651
3398.014,0.037134544648,0.0508407914482
3399.943,0.0362464429476,0.0495460365834
3401.871,0.0353686473539,0.050915088621
3403.8,0.0345002472907,0.052725568943
3405.728,0.0336421431208,0.0515266631058
3407.657,0.0327934446948,0.0463751593687
3409.585,0.0319550319487,0.0453885443173
3411.514,0.0311260351598,0.0496608848846
3413.442,0.0303073138375,0.0515753304564
3415.371,0.0294980186859,0.0499435056242
3417.299,0.0286989887874,0.0509851312975
3419.228,0.0279093952729,0.0513021684591
3421.156,0.0271300567982,0.0490925248252
3423.085,0.0263601649209,0.0481657625026
3425.013,0.02560051787,0.0484275828073
3426.942,0.0248503276298,0.0484707074455
3428.87,0.0241103720027,0.0487007065377
3430.799,0.0233798833998,0.0510904491586
3432.727,0.0226596191964,0.0518097025462
3434.656,0.0219488322307,0.0486702924029
3436.584,0.0212482594511,0.0482827220509
3438.513,0.0205571741226,0.0512466265446
3440.441,0.0198762927668,0.0516212307347
3442.37,0.0192049090754,0.0496008121416
3444.298,0.0185437191435,0.0514310104633
3446.227,0.0178920370893,0.0518926591606
3448.155,0.0172505385811,0.0534069970502
3450.084,0.0166185581641,0.0538302440193
3452.012,0.0159967510797,0.0520554070119
3453.941,0.0153844722999,0.0493567588737
3455.869,0.0147823566393,0.0541987411066
3457.798,0.0141897794966,0.0588810786859
3459.726,0.0136073552598,0.0607750363302
3461.655,0.0130344797544,0.0618492764369
3463.583,0.0124717469413,0.0635335093004
3465.512,0.0119185730731,0.0687925357918
3467.44,0.0113755316838,0.0715725123877
3469.369,0.0108420594528,0.0684539073925
3471.297,0.0103187094873,0.0709902968808
3473.226,0.00980493889342,0.0727625330564
3475.154,0.00930128035178,0.0755147511857
3477.083,0.00880721139506,0.0778242451904
3479.011,0.00832324427721,0.0811511315441
3480.94,0.00784887695767,0.0831700252964
3482.868,0.00738460126362,0.0865585908925
3484.797,0.00692993558126,0.0895883096426
3486.725,0.006485351311,0.0893505932963
3488.654,0.00605038726583,0.0916904395814
3490.582,0.00562549441935,0.0948399862235
3492.511,0.00521023201137,0.0925932654111
3494.439,0.00480503058868,0.0873080796913
3496.368,0.00440946981788,0.0828532411899
3498.296,0.00402395981899,0.0829698742051
3500.225,0.00364810068537,0.0852809400505
3502.153,0.00328228211027,0.0846248239243
3504.082,0.00292612461384,0.0865234862221
3506.01,0.00257999746253,0.0931776089258
3507.939,0.00224354160328,0.103660127658
3509.867,0.00191710587576,0.11501709002
3511.796,0.0016003516537,0.117875034983
3513.724,0.00129360734997,0.120150342918
3515.653,0.000996554765088,0.12619590455
3517.581,0.000709501885151,0.135186586258
3519.51,0.00043215093746,0.14550083198
3521.438,0.000164789481307,0.161610708345
3523.367,-9.2859829202e-05,0.171942147204
3525.295,-0.000340529861557,0.169827035472
3527.224,-0.000578477534884,0.167005243935
3529.152,-0.000806456143447,0.164182580676
3531.081,-0.00102470217959,0.152244756764
3533.009,-0.00123298936436,0.141613056078
3534.938,-0.00143153376332,0.138814026435
3536.866,-0.00162012952431,0.136139486646
3538.795,-0.00179897228608,0.129421028285
3540.723,-0.00196787662327,0.126834954355
3542.652,-0.00212701774786,0.127228099321
3544.58,-0.00227623066126,0.126794576967
3546.509,-0.00241567014866,0.117560216798
3548.437,-0.00254519163828,0.106481813492
3550.366,-0.0026649294885,0.103358854486
3552.294,-0.00277475955432,0.109483038135
3554.223,-0.00287479576735,0.118552042305
3556.151,-0.00296493440938,0.130378256961
3558.08,-0.00304526898523,0.148748796732
3560.008,-0.00311571620347,0.176998259416
3561.937,-0.00317634914213,0.198083354095
3563.865,-0.00322710493659,0.209284923596
3565.794,-0.00326803623807,0.225638399121
3567.722,-0.00329910060873,0.252326695878
3569.651,-0.00332033027302,0.273296576103
3571.579,-0.00333170321989,0.289232340034
3573.508,-0.00333323124699,0.285515076997
3575.436,-0.00332491277008,0.252167023353
3577.365,-0.00330673916,0.199022396696
3579.293,-0.00327872925929,0.15155579385
3581.222,-0.00324085401203,0.118197388936
3583.15,-0.00319315268753,0.0970185848113
3585.079,-0.00313557580308,0.0863777672516
3587.007,-0.00306818305479,0.0856770984495
3588.936,-0.00299090453316,0.0903718809812
3590.864,-0.00290382036108,0.0963370559822
3592.793,-0.00280684020226,0.106892557376
3594.721,-0.00270006460639,0.12438155657
3596.65,-0.00258338281039,0.141018640063
3598.578,-0.00245691579072,0.144581145044
3600.507,-0.00232053235754,0.12876802048
3602.435,-0.00217437391408,0.0986016457224
3604.364,-0.00201828884371,0.0694209978299
3606.292,-0.00185243897647,0.0573618901035
3608.221,-0.00167665226892,0.0517817771047
3610.149,-0.00149111097788,0.0441657293949
3612.078,-0.00129562263314,0.0448830076529
3614.006,-0.00109038991831,0.046790885218
3615.935,-0.000875199936392,0.0430236887669
3617.863,-0.000650275797778,0.0402024844301
3619.792,-0.000415384178666,0.0376755681471
3621.72,-0.000170768616261,0.036678400275
3623.649,8.38246400328e-05,0.0379693442673
3625.577,0.000348131626232,0.0391237171557
3627.506,0.000622426519708,0.038162067567
3629.434,0.000906424929696,0.0428907043536
3631.363,0.00120042146036,0.0393241919026
3633.291,0.00150411129414,0.0325982843391
3635.22,0.00181780946198,0.0273866785599
3637.148,0.00214119071955,0.0284152633389
3639.077,0.00247459052459,0.0294479809906
3641.005,0.00281766320595,0.026758299596
3642.934,0.00317076464816,0.0241748332493
3644.862,0.00353352875331,0.0212749216662
3646.791,0.00390633183271,0.0203941836833
3648.719,0.00428878736166,0.0223628855384
3650.648,0.00468129207824,0.0286907891913
3652.576,0.00508343903097,0.0259829715624
3654.505,0.00549564538474,0.0206339411916
3656.433,0.00591748376127,0.0214053707824
3658.362,0.00634939175222,0.0192075677141
3660.29,0.00679092155253,0.0144281222158
3662.219,0.00724253118067,0.0089320366956
3664.147,0.00770375240478,0.00785775573229
3666.076,0.0081750636701,0.0111350545953
3668.004,0.008655976318,0.0172193901027
3669.933,0.0091469892205,0.0219098186234
3671.861,0.00964759329219,0.0174928090125
3673.79,0.0101583078319,0.0146961347032
3675.718,0.0106786033274,0.0257592820461
3677.647,0.0112090195042,0.0179772738345
3679.575,0.0117490064235,0.00550106938768
3681.504,0.0122991242376,0.000569065391463
3683.432,0.0128588025806,0.00229534681794
3685.361,0.0134286220319,0.00559189752741
3687.289,0.0140079917987,0.0083613602684
3689.218,0.0145975128872,0.0130053376132
3691.146,0.0151965740778,0.0109896181794
3693.075,0.0158057968034,0.00418763289436
3695.003,0.0164245494178,-0.000125145799118
3696.932,0.0170534737806,-0.00334630709712
3698.86,0.0176919178189,-0.00398475113534
