baseline wavenumber (cm-1),baseline absorbance (cm-1),baseline-subtracted absorbance (cm-1)
3199.379,0.242413560093,1.42108547152e-14
3201.308,0.24040458489,0.00202848394654
3203.236,0.238406496858,0.00267546513499
3205.165,0.236417223293,0.0031728252266
3207.093,0.234438826685,0.00308799531067
3209.021,0.232470273236,0.00402137237199
3210.95,0.230510549572,0.00471267391937
3212.878,0.228561687547,0.00526509401561
3214.807,0.22662166552,0.00505799181319
3216.736,0.224691496866,0.00661036808898
3218.664,0.22277217453,0.00669505987863
3220.593,0.220861707512,0.00749464041028
3222.521,0.2189620766,0.0080996185382
3224.449,0.217072288846,0.0089767710951
3226.378,0.215191371731,0.00958335282172
3228.306,0.213321275401,0.00994758642021
3230.235,0.211460059923,0.0100683793773
3232.164,0.209608697818,0.0115475591317
3234.092,0.207768141176,0.0125687485437
3236.021,0.205936480708,0.013390705181
3237.949,0.20411561549,0.0129627075662
3239.877,0.202304593432,0.0133940166962
3241.806,0.200502482866,0.0140456168008
3243.734,0.198711152231,0.0144716386312
3245.663,0.196928743302,0.0143561399491
3247.592,0.195156187745,0.0158152415485
3249.52,0.193394396799,0.0160465058597
3251.448,0.191642449012,0.0169863137498
3253.377,0.189899443357,0.016718857462
3255.305,0.188167186994,0.0170944980362
3257.234,0.186443882976,0.0179174684848
3259.162,0.184731318036,0.0191192176959
3261.091,0.183027715656,0.0192642433051
3263.02,0.181333966648,0.0200621063331
3264.948,0.179650941397,0.0200042036553
3266.876,0.177977759305,0.021411440129
3268.805,0.176313560199,0.0220901444409
3270.733,0.174660069531,0.022899806139
3272.662,0.173015572062,0.0219116340437
3274.591,0.171380927965,0.0218933922613
3276.519,0.169756976986,0.0227796499224
3278.448,0.168142034526,0.0249937534046
3280.376,0.16653777497,0.0252022786029
3282.304,0.164943358574,0.0251167192591
3284.233,0.163357966016,0.0255059124837
3286.161,0.161783241043,0.0275132160475
3288.09,0.160217550123,0.0277774817177
3290.019,0.158661712575,0.0277697894969
3291.947,0.157116527291,0.0278868437796
3293.875,0.155581185166,0.0291472440268
3295.804,0.15405489752,0.0296447739653
3297.732,0.152539246818,0.030400089076
3299.661,0.151032660809,0.0314457936534
3301.589,0.149536701532,0.0325348490597
3303.518,0.14804981716,0.0325412927156
3305.447,0.146572786161,0.0334031412624
3307.375,0.145106366572,0.0330188583347
3309.303,0.143649790142,0.0332007961315
3311.232,0.142202309044,0.0332306587105
3313.16,0.140765424038,0.034193774385
3315.089,0.139337644578,0.035282475709
3317.017,0.137920450996,0.0361428109068
3318.946,0.136512373173,0.0363929487721
3320.875,0.135114148722,0.0377315856352
3322.803,0.133726494828,0.0376509286024
3324.731,0.132348684093,0.0374842129045
3326.66,0.130980009545,0.0373317614043
3328.588,0.129621890234,0.037957393098
3330.517,0.128272917322,0.0379410066643
3332.445,0.126934489435,0.0386774937854
3334.374,0.125605218161,0.0390843957075
3336.302,0.124286481697,0.039319386088
3338.231,0.12297691206,0.0394553481235
3340.159,0.121677867021,0.0407315487279
3342.088,0.120387999021,0.0411101663486
3344.016,0.119108645405,0.0414159022551
3345.945,0.117838479042,0.0417439378181
3347.873,0.11657881685,0.0436237860004
3349.802,0.115328352125,0.0441470698908
3351.73,0.114088381356,0.0441979675772
3353.659,0.112857618268,0.0431739545611
3355.587,0.111637338924,0.0429692364328
3357.516,0.110426277473,0.0432948233058
3359.444,0.109225689552,0.0449447693586
3361.373,0.108034329738,0.0450815956639
3363.302,0.106852823297,0.0455413796751
3365.23,0.105681775064,0.0454220205489
3367.158,0.104520569991,0.0462980239644
3369.087,0.103368613452,0.0464142481678
3371.015,0.102227099802,0.0475768373252
3372.944,0.1010948449,0.0477155614481
3374.872,0.0999730226741,0.0480040166466
3376.801,0.098860469409,0.0476244037336
3378.729,0.0977583386071,0.0482957248721
3380.658,0.0966654869793,0.0487714734979
3382.586,0.0955830476012,0.0489661134218
3384.515,0.0945098976105,0.0481312981846
3386.443,0.0934471496562,0.0491927826192
3388.372,0.0923937013026,0.0497481009818
3390.3,0.0913506447721,0.0506981119245
3392.229,0.0903168980558,0.0491846030056
3394.157,0.0892935329491,0.0503052591261
3396.086,0.0882794878699,0.0517359119077
3398.014,0.087275814187,0.0526342585918
3399.943,0.086281470745,0.0538681148205
3401.871,0.0852974884859,0.0546997166086
3403.8,0.0843228466811,0.0545278406736
3405.728,0.0833585558457,0.0555309468329
3407.657,0.0824036156781,0.0565325361464
3409.585,0.0814590162666,0.0577646115511
3411.514,0.0805237777362,0.0576333384066
3413.442,0.0795988697484,0.0576045922955
3415.371,0.0786833328552,0.0578625430167
3417.299,0.0777781162912,0.0583403361499
3419.228,0.0768822810351,0.0563570649671
3421.156,0.075996755895,0.0557603804641
3423.085,0.0751206222761,0.0576844772893
3425.013,0.0742547885597,0.0606913703405
3426.942,0.073398356578,0.0622460232865
3428.87,0.0725522142854,0.0633708474754
3430.799,0.0717154839409,0.0624112571892
3432.727,0.0708890330721,0.0629850546667
3434.656,0.0700720043648,0.0638886092003
3436.584,0.0692652449198,0.0646041425259
3438.513,0.0684679178497,0.0649591366333
3440.441,0.0676808498284,0.0662163350498
3442.37,0.0669032243955,0.064387875372
3444.298,0.066135847798,0.064854837535
3446.227,0.0653779240023,0.0620903717624
3448.155,0.0646302388286,0.0619438893428
3450.084,0.0638920166701,0.0656745809242
3452.012,0.0631640229202,0.0676104994694
3453.941,0.0624455023988,0.0673975532971
3455.869,0.0617372000728,0.0681008015445
3457.798,0.0610383811886,0.0684961230063
3459.726,0.0603497702863,0.0685330610086
3461.655,0.0596706530393,0.0674305144529
3463.583,0.0590017335608,0.0682328110667
3465.512,0.0583423179509,0.0687077528062
3467.44,0.0576930898962,0.0697311848435
3469.369,0.0570533759236,0.0703652887888
3471.297,0.0564238392927,0.0705468824297
3473.226,0.0558038269572,0.0702289083101
3475.154,0.0551939817501,0.0702318092132
3477.083,0.0545936710518,0.0708675995435
3479.011,0.0540035172685,0.0706684578654
3480.94,0.0534229082074,0.0676387363898
3482.868,0.0528524458479,0.0681759429118
3484.797,0.052291538424,0.0708248418449
3486.725,0.0517407674882,0.0703136497765
3488.654,0.0511995617015,0.0687364385007
3490.582,0.0506684821896,0.0701764940563
3492.511,0.05014697804,0.070120822425
3494.439,0.0496355899519,0.0698955280103
3496.368,0.0491337874395,0.0687756788498
3498.296,0.0486420907751,0.0696857016033
3500.225,0.0481599899,0.0685255807055
3502.153,0.0476879846594,0.0639955137739
3504.082,0.0472255854214,0.0625603591859
3506.01,0.0467732716046,0.0679428256359
3507.939,0.0463305740038,0.0685812171617
3509.867,0.0458979516108,0.0686595991827
3511.796,0.0454749556472,0.0713839193149
3513.724,0.045062024678,0.0712286202225
3515.653,0.0446587303515,0.0692512413456
3517.581,0.0442654908061,0.0675376882093
3519.51,0.0438818981169,0.0661710029243
3521.438,0.0435083499953,0.0636057053974
3523.367,0.0431444589432,0.0579323984307
3525.295,0.0427906022454,0.0585974852913
3527.224,0.0424464128305,0.0575708569562
3529.152,0.0421122475564,0.0586971479758
3531.081,0.0417877597787,0.0623986700201
3533.009,0.0414732859285,0.0668677986768
3534.938,0.041168499788,0.0665645286159
3536.866,0.0408737173615,0.0645259440152
3538.795,0.0405886328582,0.0653132523131
3540.723,0.0403135418555,0.06492408576
3542.652,0.0400481589894,0.0599245338237
3544.58,0.0397927594105,0.0531101365766
3546.509,0.0395470781815,0.0511830188568
3548.437,0.0393113700264,0.0584141278003
3550.366,0.0390853904347,0.0612510444183
3552.294,0.0388693737034,0.0576943430661
3554.223,0.0386630957488,0.061497558249
3556.151,0.0384667704413,0.0691200940083
3558.08,0.0382801941239,0.0737644687691
3560.008,0.0381035602402,0.0765912593292
3561.937,0.0379366855599,0.0780884180487
3563.865,0.0377797431,0.0752323715265
3565.794,0.037632570057,0.0591030359271
3567.722,0.0374953190208,0.0497647992446
3569.651,0.037367847615,0.062246612104
3571.579,0.0372502880026,0.0674802639027
3573.508,0.037142518234,0.0634869520986
3575.436,0.0370446500454,0.059613022046
3577.365,0.0369565819139,0.0592408152356
3579.293,0.0368784051492,0.0601351246193
3581.222,0.0368100386549,0.060457306943
3583.15,0.0367515533139,0.0584491795275
3585.079,0.0367028884568,0.0524721191243
3587.007,0.0366640945396,0.041445968131
3588.936,0.0366351313197,0.0565036385176
3590.864,0.0366160288263,0.0794928714062
3592.793,0.0366067672436,0.0874428991873
3594.721,0.0366073561739,0.0975886763743
3596.65,0.0366177962284,0.117362427162
3598.578,0.0366380765826,0.125818291557
3600.507,0.0366682182742,0.109866387002
3602.435,0.0367081900522,0.0845464192675
3604.364,0.036758033381,0.0649035303509
3606.292,0.0368176965828,0.0479367611146
3608.221,0.0368872415488,0.0348439168461
3610.149,0.0369665961743,0.0363331460677
3612.078,0.0370558427775,0.0289185178815
3614.006,0.0371548888269,0.0179370802422
3615.935,0.0372638370672,0.0199812200439
3617.863,0.0373825745404,0.0149496148865
3619.792,0.0375112244179,0.012023027073
3621.72,0.0376496533148,0.0263281946585
3623.649,0.0377980048296,0.033256917843
3625.577,0.0379561251503,0.0287334381773
3627.506,0.0381241783022,0.0128699438043
3629.434,0.0383019900467,-0.00329902330258
3631.363,0.0384897448359,0.0178650868633
3633.291,0.0386872480041,0.0242593152224
3635.22,0.0388947044304,0.0251218577853
3637.148,0.0391118990225,0.0290990935985
3639.077,0.039339057086,0.0310889576719
3641.005,0.0395759431019,0.0318815874753
3642.934,0.0398228028026,0.0301814780021
3644.862,0.0400793802422,0.0267357263988
3646.791,0.0403459415801,0.00339547659439
3648.719,0.0406222104435,-0.0218174646637
3650.648,0.0409084734186,-0.0141896469756
3652.576,0.0412044337058,0.0159584440866
3654.505,0.041510398318,0.0221942261639
3656.433,0.0418260500291,0.0144380609585
3658.362,0.0421517162785,0.0216967472816
3660.29,0.0424870594133,0.0296824897629
3662.219,0.0428324272999,0.0313985794726
3664.147,0.0431874618585,0.0307212968598
3666.076,0.0435525313823,0.0260736032584
3668.004,0.0439272573647,0.0138354384808
3669.933,0.0443120285257,-0.00571005238093
3671.861,0.0447064459319,0.00548412821145
3673.79,0.04511091873,0.00167174072616
3675.718,0.04552502756,-0.0307206861065
3677.647,0.0459492019953,-0.0129361270939
3679.575,0.0463830022491,0.0051710612301
3681.504,0.0468268783216,0.0181936766162
3683.432,0.0472803699992,0.0221002880418
3685.361,0.0477439477089,0.0160960755398
3687.289,0.0482171308103,0.00167060294085
3689.218,0.0487004101572,-0.0206206214176
3691.146,0.0491932846823,-0.0142787643144
3693.075,0.0496962656664,0.00302978810901
3695.003,0.0502088316153,0.00872499533301
3696.932,0.0507315142366,0.00611654499722
3698.86,0.0512637716093,0.00558428762448
