baseline wavenumber (cm-1),baseline absorbance (cm-1),baseline-subtracted absorbance (cm-1)
3199.379,0.196258824352,2.13162820728e-14
3201.308,0.194281313028,3.82508213808e-05
3203.236,0.192314672566,0.00142685256197
3205.165,0.19035686288,0.00384877072636
3207.093,0.18840991384,0.0040116280621
3209.021,0.186472807961,0.00444422565932
3210.95,0.184544548176,0.00658042561274
3212.878,0.18262713372,0.00720057299677
3214.807,0.180718575573,0.00699617944189
3216.736,0.178819870799,0.00782687554927
3218.664,0.176931996031,0.00907205792866
3220.593,0.175052992894,0.00930186836307
3222.521,0.17318480955,0.00816138462097
3224.449,0.171326469365,0.0103171316695
3226.378,0.169477016129,0.0110891402975
3228.306,0.167638367369,0.0118185418367
3230.235,0.16580861577,0.0122779851944
3232.164,0.163988717544,0.0115718472141
3234.092,0.162179608472,0.01095172584
3236.021,0.160379411883,0.0104865977623
3237.949,0.158589994235,0.0114026667006
3239.877,0.156810419745,0.0121739934793
3241.806,0.155039773058,0.0133260618478
3243.734,0.153279889992,0.0137121418801
3245.663,0.151528944943,0.0120602072204
3247.592,0.149787853266,0.0125728792427
3249.52,0.148057509888,0.0135396104023
3251.448,0.14633700967,0.0130108620009
3253.377,0.144625467895,0.0135006242277
3255.305,0.142924659101,0.0142470051197
3257.234,0.141232818963,0.0129777073532
3259.162,0.139551701592,0.013757168192
3261.091,0.137879563091,0.0147607528381
3263.02,0.136217277963,0.0163024676162
3264.948,0.134565700281,0.0169346142507
3266.876,0.132923965758,0.0160667380937
3268.805,0.131291230531,0.0164637146007
3270.733,0.129669187432,0.0179955920467
3272.662,0.128056153843,0.0188250930995
3274.591,0.126452973626,0.0192057948092
3276.519,0.124860470215,0.01861684858
3278.448,0.123276991635,0.0191263773448
3280.376,0.121704179648,0.0208375831251
3282.304,0.120141210821,0.0231498355204
3284.233,0.118587282143,0.0241320161028
3286.161,0.117044004739,0.0241746294963
3288.09,0.115509777698,0.0239156783723
3290.019,0.11398540403,0.0241483766366
3291.947,0.112471666314,0.024309979034
3293.875,0.110967771758,0.0265096868287
3295.804,0.109472947992,0.0267869247978
3297.732,0.107988744859,0.026005453785
3299.661,0.10651362273,0.0278041937234
3301.589,0.105049111021,0.0299152420927
3303.518,0.103593690529,0.0293716411265
3305.447,0.10214812341,0.0296045151585
3307.375,0.10071315139,0.0291260881436
3309.303,0.0992880225282,0.0286912882987
3311.232,0.0978720053107,0.0293391500677
3313.16,0.0964665678732,0.0305044952428
3315.089,0.0950702522929,0.0309865730373
3317.017,0.0936845062792,0.0316492464293
3318.946,0.0923078923361,0.0308377706261
3320.875,0.0909411317656,0.0303337686328
3322.803,0.0895849254402,0.0300271525636
3324.731,0.088238562274,0.0307661207483
3326.66,0.0869013516053,0.0316231468919
3328.588,0.0855746798629,0.0321481131754
3330.517,0.0842571708314,0.0314865210677
3332.445,0.0829501905128,0.0312753634118
3334.374,0.0816523831185,0.0315530407999
3336.302,0.0803650942237,0.0321563987518
3338.231,0.0790869884665,0.0325936573712
3340.159,0.0778193909955,0.0324490090884
3342.088,0.0765609868755,0.0335910366095
3344.016,0.0753130808283,0.0346142274823
3345.945,0.0740743783455,0.0350991031671
3347.873,0.0728461637221,0.0361522286733
3349.802,0.0716271628765,0.0350775970313
3351.73,0.0704186396768,0.0341826044694
3353.659,0.0692193404684,0.0346022154133
3355.587,0.0680305086925,0.035102922495
3357.516,0.0668509111213,0.036711680617
3359.444,0.0656817707692,0.0391347526109
3361.373,0.0645218748352,0.0393203003238
3363.302,0.0633718322737,0.0382546442762
3365.23,0.06223223161,0.0363677544108
3367.158,0.0611024741056,0.0364620048208
3369.087,0.0599819814459,0.0376027672785
3371.015,0.0588719153652,0.0382808769742
3372.944,0.0577711243427,0.037650347664
3374.872,0.0566807496858,0.0386327332247
3376.801,0.0555996603005,0.0388918473531
3378.729,0.0545289770674,0.0381980097223
3380.658,0.0534675893192,0.0380931851268
3382.586,0.0524165975099,0.0388785726865
3384.515,0.051374911399,0.0400754275959
3386.443,0.0503436110135,0.0401575422681
3388.372,0.0493216265397,0.0394513517227
3390.3,0.048310017578,0.0406548248069
3392.229,0.0473077347414,0.0410878059031
3394.157,0.0463158172034,0.040394883852
3396.086,0.0453332360041,0.0395699582365
3398.014,0.0443610098899,0.0397796205707
3399.943,0.0433981303277,0.0393103340604
3401.871,0.0424455956373,0.0398501337259
3403.8,0.0415024177123,0.0420619214224
3405.728,0.0405695744457,0.0422629550853
3407.657,0.0396460981579,0.0399257897292
3409.585,0.0387329463151,0.0402014913727
3411.514,0.0378291716645,0.0392586175296
3413.442,0.0369357112455,0.0367257831279
3415.371,0.036051638232,0.0355674992531
3417.299,0.0351778692368,0.0345677098504
3419.228,0.0343134978605,0.0329347023212
3421.156,0.0334594202891,0.0329150817029
3423.085,0.03261475055,0.0309827891159
3425.013,0.0317803644024,0.0300096684487
3426.942,0.0309553963005,0.0303097186782
3428.87,0.0301407015766,0.0291302846539
3430.799,0.0293354351119,0.0270422121936
3432.727,0.0285404318119,0.0265843322896
3434.656,0.0277548669843,0.0267852182886
3436.584,0.0269795551081,0.0256761379093
3438.513,0.0262136919177,0.021995925752
3440.441,0.0254580714653,0.0221871371739
3442.37,0.0247119099121,0.023999909477
3444.298,0.0239759808834,0.0237293381912
3446.227,0.0232495209674,0.0226360595176
3448.155,0.0225332833626,0.0249644450221
3450.084,0.0218265250837,0.0246685472585
3452.012,0.0211299789027,0.0253731314629
3453.941,0.020442922261,0.0250830440492
3455.869,0.0197660675038,0.0239495961574
3457.798,0.0190987124993,0.0247752652738
3459.726,0.0184415491658,0.0254897432086
3461.655,0.0177938957986,0.0261664033557
3463.583,0.0171564238888,0.026332078243
3465.512,0.0165284721588,0.0260388026018
3467.44,0.0159106916729,0.0273859463365
3469.369,0.01530244158,0.0280689849944
3471.297,0.0147043525178,0.0286635792638
3473.226,0.0141158040621,0.0301261753885
3475.154,0.0135374064238,0.0321667943171
3477.083,0.0129685596053,0.0326367385005
3479.011,0.0124098533907,0.0333572536198
3480.94,0.0118607082094,0.0338431430522
3482.868,0.0113216934186,0.0356518160522
3484.797,0.0107922498745,0.0358461089708
3486.725,0.0102729265075,0.0358723170795
3488.654,0.00976318460057,0.0371732800671
3490.582,0.00926355265739,0.039880572596
3492.511,0.00877351238761,0.0390457369309
3494.439,0.00829357186823,0.0392153398533
3496.368,0.00782323323563,0.0403496891101
3498.296,0.00736298414004,0.0405551678135
3500.225,0.00691234714463,0.0396505241771
3502.153,0.00647178947283,0.039842951563
3504.082,0.0060408541146,0.0426241350515
3506.01,0.00561998786659,0.0456416323193
3507.939,0.00520875414555,0.0480246281149
3509.867,0.00480757932133,0.0531126695079
3511.796,0.00441604723747,0.0563713295711
3513.724,0.00403456383704,0.0556495068976
3515.653,0.00366273339037,0.0548869276147
3517.581,0.00330094141373,0.0561318537215
3519.51,0.00294881260424,0.0576330703901
3521.438,0.00260671205139,0.0602607654072
3523.367,0.00227428487909,0.064290333839
3525.295,0.00195187575003,0.0661078153103
3527.224,0.00163915021491,0.0644320037657
3529.152,0.00133643250965,0.0657108170885
3531.081,0.00104340861171,0.065302785559
3533.009,0.000760382330231,0.0620207737472
3534.938,0.000487060069485,0.0597771462631
3536.866,0.0002237252118,0.0605674958688
3538.795,-2.98954117675e-05,0.0593424696761
3540.723,-0.000273538845661,0.0600662976351
3542.652,-0.00050745783204,0.0605490458659
3544.58,-0.000731409842146,0.0599178220879
3546.509,-0.000945627191339,0.0574892771529
3548.437,-0.00114988777766,0.0562397039516
3550.366,-0.00134440348967,0.0550639114228
3552.294,-0.00152897265219,0.0591787245219
3554.223,-0.00170378672702,0.0643423552599
3556.151,-0.00186866446575,0.0693150193969
3558.08,-0.00202377690339,0.0770720050435
3560.008,-0.00216896321833,0.0880814536077
3561.937,-0.00230437401879,0.0967829509392
3563.865,-0.00242986890994,0.101303147725
3565.794,-0.00254557807321,0.101374822499
3567.722,-0.00265138154057,0.101074880527
3569.651,-0.00274738906666,0.102577192659
3571.579,-0.00283350111023,0.104339057831
3573.508,-0.00290980699913,0.0998340398921
3575.436,-0.00297622761891,0.0885486746728
3577.365,-0.00303283187063,0.0761582250348
3579.293,-0.00307956106662,0.0672128524624
3581.222,-0.00311646368115,0.0607987171235
3583.15,-0.00314350145335,0.0579145925277
3585.079,-0.0031607024307,0.0573341839432
3587.007,-0.00316804877911,0.0632243149425
3588.936,-0.00316554811927,0.073641538893
3590.864,-0.00315320304389,0.0809392518312
3592.793,-0.00313100074687,0.0910680245814
3594.721,-0.00309896424769,0.110620457223
3596.65,-0.00305706031349,0.131363483743
3598.578,-0.00300533239053,0.136828635669
3600.507,-0.00294372681914,0.116874320235
3602.435,-0.00287230747238,0.0852414274836
3604.364,-0.00279100026381,0.0598773915408
3606.292,-0.00269988949326,0.0446475374977
3608.221,-0.0025988806475,0.0373325774393
3610.149,-0.00248807845317,0.0358462248151
3612.078,-0.00236736797022,0.0314555765395
3614.006,-0.0022368743521,0.032927095922
3615.935,-0.00209646223197,0.0319189267598
3617.863,-0.00194627719005,0.0301506526706
3619.792,-0.00178616343274,0.0308561990796
3621.72,-0.00161628696703,0.0308628096482
3623.649,-0.00143647157253,0.0289069405737
3625.577,-0.00124690368303,0.0267326798765
3627.506,-0.00104738665135,0.0227451569736
3629.434,-0.00083812733806,0.0288667147428
3631.363,-0.000618908669193,0.0291734623842
3633.291,-0.000389957932114,0.0249055796557
3635.22,-0.000151037626061,0.0238806804582
3637.148,9.76045348082e-05,0.0225437598323
3639.077,0.000356226478043,0.0225898838176
3641.005,0.000624560062704,0.0205479429079
3642.934,0.000902883643128,0.0191117944865
3644.862,0.00119090865158,0.0167999349914
3646.791,0.00148893386919,0.014266290846
3648.719,0.00179665030143,0.0189320139888
3650.648,0.00211437715622,0.0258635357535
3652.576,0.00244178501225,0.0235336116467
3654.505,0.00277921350423,0.0167685603128
3656.433,0.00312631278405,0.0185389559655
3658.362,0.00348344291321,0.0191579214539
3660.29,0.00385023361682,0.0168336973261
3662.219,0.00422706538317,0.0140513997039
3664.147,0.00461354751057,0.0125727948393
3666.076,0.0050100809141,0.0101723472679
3668.004,0.0054162544653,0.00652650082932
3669.933,0.00583248950601,0.0073114260598
3671.861,0.00625835448099,0.0144147426043
3673.79,0.0066942911589,0.00763296123504
3675.718,0.00713984755767,0.00841058230184
3677.647,0.00759548587276,0.0141253500817
3679.575,0.00806073369532,0.0112133978487
3681.504,0.00853607364759,0.00977454353281
3683.432,0.00902101289395,0.00782179132776
3685.361,0.0095160544834,0.00511524488055
3687.289,0.0100206851535,0.00272796935124
3689.218,0.0105354283802,0.00431289761408
3691.146,0.0110597504741,0.0065536555509
3693.075,0.0115941953379,0.0062275003355
3695.003,0.0121382088557,0.00356424448884
3696.932,0.0126923553567,0.00274938644803
3698.86,0.0132560602982,0.00218568150651
