baseline wavenumber (cm-1),baseline absorbance (cm-1),baseline-subtracted absorbance (cm-1)
3199.379,0.171230870312,6.55031584529e-15
3201.308,0.169434508827,-0.000247103591038
3203.236,0.167648924293,0.000440482357722
3205.165,0.165872264445,0.00126803677773
3207.093,0.164106371336,0.0014158666105
3209.021,0.162350321385,0.00211682710393
3210.95,0.160603211439,0.00232865958133
3212.878,0.158866852912,0.00186588740969
3214.807,0.157139444603,0.000515109122236
3216.736,0.155421889666,0.00160408829813
3218.664,0.153715070828,0.00136463199255
3220.593,0.152017217528,3.15543306078e-05
3222.521,0.150330090114,0.000149744112608
3224.449,0.148652805858,0.00179013359398
3226.378,0.146984502461,0.00220669333443
3228.306,0.145326909629,0.00424025907624
3230.235,0.143678307869,0.00515955728867
3232.164,0.142039559481,0.00436269463836
3234.092,0.140411506337,0.00432138560638
3236.021,0.138792459587,0.00475166251973
3237.949,0.137184097867,0.00423220659039
3239.877,0.135585579307,0.00645075951842
3241.806,0.133996082458,0.00681438959278
3243.734,0.132417255322,0.00747226251924
3245.663,0.13084746011,0.00752820955542
3247.592,0.129287518271,0.00640327319777
3249.52,0.127738230823,0.00635405665318
3251.448,0.126198786534,0.00737318354596
3253.377,0.124668394597,0.0073230640105
3255.305,0.123148641731,0.00866951251901
3257.234,0.121637951431,0.0108023093591
3259.162,0.12013788999,0.0130823667572
3261.091,0.118646901327,0.0123287380138
3263.02,0.117165766037,0.0123500532294
3264.948,0.115695244284,0.0121072423229
3266.876,0.11423456569,0.0123706602273
3268.805,0.112782980302,0.0121097721497
3270.733,0.111341993132,0.0127709655261
3272.662,0.10991010938,0.0149098137978
3274.591,0.108488079001,0.0157111527786
3276.519,0.10707663152,0.0133227417744
3278.448,0.105674302778,0.0155586397064
3280.376,0.10428254672,0.0189244177999
3282.304,0.102900633822,0.0198169442637
3284.233,0.101527854982,0.0195170757771
3286.161,0.100165633507,0.0194267550504
3288.09,0.0988125563046,0.0202792763043
3290.019,0.0974693324746,0.0211191644425
3291.947,0.0961366506881,0.0225675846298
3293.875,0.0948138120609,0.02398058802
3295.804,0.0935001381326,0.0234309747755
3297.732,0.0921969909292,0.0239696420436
3299.661,0.0909030186381,0.0241377677765
3301.589,0.0896195628585,0.0225267021774
3303.518,0.0883452922046,0.0212487641989
3305.447,0.0870808749233,0.0239638031319
3307.375,0.085826958832,0.0239474776382
3309.303,0.0845828859,0.0235786424534
3311.232,0.0833480185204,0.024468720588
3313.16,0.0821236370122,0.0251732395672
3315.089,0.0809084712698,0.0258227022872
3317.017,0.0797037811853,0.0272864644429
3318.946,0.0785083170802,0.0253286383428
3320.875,0.0773227063477,0.0261379729205
3322.803,0.0761475559515,0.0288005386608
3324.731,0.0749822487146,0.0291432945988
3326.66,0.0738261878839,0.0281484406414
3328.588,0.0726805720707,0.0282278985651
3330.517,0.0715442128772,0.0284252604879
3332.445,0.0704182884878,0.0281315447276
3334.374,0.0693016309314,0.0281410558168
3336.302,0.0681953979659,0.0288370997598
3338.231,0.0670984420467,0.0292709605612
3340.159,0.0660119005049,0.030542531922
3342.088,0.0649346462229,0.0304270741855
3344.016,0.0638677961049,0.0300874752991
3345.945,0.0628102434601,0.0300983787981
3347.873,0.0617630847659,0.0311159711322
3349.802,0.0607252337582,0.0321051513625
3351.73,0.0596977664879,0.0333698065436
3353.659,0.0586796171174,0.0321716413482
3355.587,0.0576718412708,0.0306318583148
3357.516,0.0566733935375,0.0314700917551
3359.444,0.0556853091147,0.0331741369583
3361.373,0.0547065630186,0.034601381993
3363.302,0.0537376702951,0.0368718515891
3365.23,0.0527791255607,0.0363117467733
3367.158,0.0518304239855,0.0356837274347
3369.087,0.0508910811637,0.0346965565599
3371.015,0.0499620710123,0.0365470263292
3372.944,0.0490424298277,0.0384844073298
3374.872,0.0481331111001,0.0377058659544
3376.801,0.0472331715527,0.0367093130323
3378.729,0.0463435442489,0.0366949172896
3380.658,0.0454633063387,0.0346507642162
3382.586,0.0445933704587,0.0369274018045
3384.515,0.0437328341857,0.0387905156577
3386.443,0.0428825897294,0.0389854482773
3388.372,0.0420417550936,0.0393922891801
3390.3,0.0412112020611,0.0392807114131
3392.229,0.0403900690625,0.0382543765051
3394.157,0.0395792074538,0.0390563934761
3396.086,0.0387777760923,0.0429880179034
3398.014,0.0379866059075,0.0436864457452
3399.943,0.0372048761832,0.0409674678985
3401.871,0.0364333974221,0.0441453956639
3403.8,0.035671369335,0.0473594605447
3405.728,0.0349195819977,0.0471787703726
3407.657,0.0341772555478,0.0468944618281
3409.585,0.0334451596343,0.0473709224439
3411.514,0.0327225348216,0.046447686547
3413.442,0.0320101303319,0.0455099849011
3415.371,0.0313072071563,0.0453364297586
3417.299,0.0306144940904,0.0461524623434
3419.228,0.0299312725521,0.0487745295302
3421.156,0.0292582509099,0.0490582860354
3423.085,0.0285947310088,0.0490554762085
3425.013,0.0279414007904,0.0522093623755
3426.942,0.0272975825264,0.0531320646989
3428.87,0.0266639437319,0.0553731026646
3430.799,0.0260398271051,0.0564833711159
3432.727,0.0254258797343,0.0554633348619
3434.656,0.0248214647447,0.0554809207804
3436.584,0.0242272087977,0.056691218373
3438.513,0.0236424954453,0.0571272912726
3440.441,0.0230679309221,0.058160614514
3442.37,0.0225029192069,0.059504914615
3444.298,0.0219480461075,0.0598350328372
3446.227,0.0214027360295,0.0572111323623
3448.155,0.0208675543538,0.0556588279367
3450.084,0.020341945913,0.0579579125728
3452.012,0.0198264556612,0.0593288056347
3453.941,0.0193205488575,0.0599276064038
3455.869,0.0188247500295,0.0595051296835
3457.798,0.018338544863,0.0595436445639
3459.726,0.0178624374587,0.0615454266876
3461.655,0.0173959339294,0.0609732665153
3463.583,0.016939517949,0.0590242443072
3465.512,0.0164927160568,0.0616287839937
3467.44,0.0160559915002,0.0635029390568
3469.369,0.0156288912452,0.0622259050754
3471.297,0.0152118581124,0.0625165862422
3473.226,0.0148044594946,0.0621462126978
3475.154,0.0144071177855,0.0640847451478
3477.083,0.014019420805,0.0657784665902
3479.011,0.0136417705197,0.0647656387596
3480.94,0.0132737751763,0.0629761490125
3482.868,0.0129158163148,0.0629507560091
3484.797,0.0125675226086,0.0632940967182
3486.725,0.0122292551709,0.0636247324971
3488.654,0.0119006631019,0.0629667178746
3490.582,0.011582087088,0.0637840303688
3492.511,0.0112731966561,0.0645703290691
3494.439,0.010974312066,0.0620113343506
3496.368,0.0106851232714,0.0607679243381
3498.296,0.010405930105,0.0645422150481
3500.225,0.0101364429476,0.0634758081391
3502.153,0.00987694120504,0.0610658466247
3504.082,0.00962715568476,0.0601401039938
3506.01,0.00938734536601,0.062825380804
3507.939,0.00915726148291,0.0623718500101
3509.867,0.00893714258796,0.0605673050012
3511.796,0.00872676034204,0.0621499201391
3513.724,0.00852633287088,0.0623987656837
3515.653,0.00833565226215,0.0617501154524
3517.581,0.00815491621478,0.0610426477193
3519.51,0.00798393724324,0.0579353996616
3521.438,0.00782289261965,0.0573397981718
3523.367,0.00767161528529,0.054119145859
3525.295,0.0075302620855,0.0514598319204
3527.224,0.00739868638832,0.0511539771111
3529.152,0.00727702461232,0.0534914480451
3531.081,0.00716515055233,0.0558514268256
3533.009,0.00706318020012,0.0578084462024
3534.938,0.00697100777732,0.0589161346466
3536.866,0.00688872884889,0.0573561412613
3538.795,0.00681625806327,0.0572771918508
3540.723,0.00675367055864,0.0560921800428
3542.652,0.00670090141021,0.0549949441372
3544.58,0.00665800532937,0.0527235776081
3546.509,0.00662493781812,0.0473856252062
3548.437,0.00660173316107,0.0492527599148
3550.366,0.006588367287,0.0526592320256
3552.294,0.00658485405374,0.0513615221719
3554.223,0.00659118981686,0.0544254886427
3556.151,0.00660736800739,0.0606706568587
3558.08,0.00663340540769,0.0654163772669
3560.008,0.00666927502202,0.0669346368349
3561.937,0.00671501405951,0.0686667710411
3563.865,0.00677057509762,0.0712863843687
3565.794,0.00683601577229,0.0663445664576
3567.722,0.00691126823419,0.0492478847022
3569.651,0.00699641054605,0.0485895087909
3571.579,0.00709135443175,0.053868718347
3573.508,0.00719619838079,0.0548706165389
3575.436,0.00731083369027,0.0550062592037
3577.365,0.0074353792765,0.0529018793912
3579.293,0.00756970600978,0.0497386938689
3581.222,0.00771395323319,0.0504299363857
3583.15,0.00786797139025,0.0539501828602
3585.079,0.00803192025085,0.0552166898775
3587.007,0.0082056298317,0.0536470943167
3588.936,0.00838928032949,0.0551644950673
3590.864,0.00858268133413,0.0681634522957
3592.793,0.0087860334691,0.0789491833509
3594.721,0.00899912589754,0.0900826996357
3596.65,0.00922217966968,0.102728694686
3598.578,0.00945496352191,0.111390331131
3600.507,0.00969771893125,0.0983810741548
3602.435,0.00995019420727,0.0749412441835
3604.364,0.0102126512538,0.0610023492516
3606.292,0.0104848179536,0.0505827045371
3608.221,0.0107669766373,0.0367848276688
3610.149,0.0110588347609,0.0360443189842
3612.078,0.0113606950818,0.0386733694083
3614.006,0.0116722446292,0.0311837646703
3615.935,0.0119938065873,0.0313836320057
3617.863,0.0123250475584,0.0288028206312
3619.792,0.0126663111537,0.0187794585825
3621.72,0.0130172435487,0.0225604881808
3623.649,0.0133782087811,0.0285218215434
3625.577,0.0137488325999,0.0299455978055
3627.506,0.0141294994695,0.029865648615
3629.434,0.0145198147121,0.010732181649
3631.363,0.0149201832189,0.0168544048737
3633.291,0.0153301898852,0.0249958992687
3635.22,0.0157502600292,0.0261007962732
3637.148,0.0161799581193,0.0287895657865
3639.077,0.0166197299005,0.0283110797629
3641.005,0.0170691194144,0.0308537048047
3642.934,0.0175285928328,0.0289214728702
3644.862,0.0179976737705,0.0308865878286
3646.791,0.0184768488261,0.0258761280262
3648.719,0.0189656211876,0.0103331759417
3650.648,0.0194644978803,0.00153423860002
3652.576,0.0199729616656,0.0139016971841
3654.505,0.0204915399955,0.0261388552334
3656.433,0.0210196952046,0.0220550546185
3658.362,0.0215579751717,0.0207194937457
3660.29,0.0221058218046,0.0223741135032
3662.219,0.0226638034089,0.02131941705
3664.147,0.0232313414656,0.0207123560984
3666.076,0.023809024707,0.0215752368921
3668.004,0.0243962541875,0.0195673564463
3669.933,0.0249936390662,0.00128610418665
3671.861,0.0256005599704,0.00306622462476
3673.79,0.0262176464863,0.0117970608826
3675.718,0.0268442588143,-0.0119240121753
3677.647,0.0274810469673,-0.00376751214472
3679.575,0.0281273507192,0.00757627810931
3681.504,0.0287838405094,0.00900879064398
3683.432,0.029449835685,0.0129845623742
3685.361,0.0301260271124,0.0125356023226
3687.289,0.0308117137118,0.0106048434498
3689.218,0.0315076067764,-0.000514177078614
3691.146,0.0322129847996,-0.002954721381
3693.075,0.0329285795013,-0.00163443212442
3695.003,0.0336536489483,0.00396532406288
3696.932,0.0343889452873,0.00404808089283
3698.86,0.0351337061581,0.00330332002205
