baseline wavenumber (cm-1),baseline absorbance (cm-1),baseline-subtracted absorbance (cm-1)
3199.379,0.158834529465,8.43769498715e-15
3201.308,0.157003053851,0.00238085396289
3203.236,0.155182373391,0.00371432124147
3205.165,0.153370599414,0.00682600424543
3207.093,0.151569610378,0.00564003280415
3209.021,0.149778464501,0.00382812601728
3210.95,0.147996240426,0.00370748948437
3212.878,0.146224785973,0.00635380495004
3214.807,0.144462263534,0.00820325754109
3216.736,0.142709594469,0.00733235438412
3218.664,0.140967679704,0.00735183914757
3220.593,0.139234712276,0.00938754588682
3222.521,0.137512488935,0.00994025542986
3224.449,0.135800108753,0.0103087561006
3226.378,0.134096691227,0.00699650598362
3228.306,0.132404002469,0.00501033089817
3230.235,0.130720286579,0.00696140754799
3232.164,0.129046424062,0.0088546170781
3234.092,0.127383274993,0.0085047266245
3236.021,0.125729114113,0.00906316325493
3237.949,0.124085656467,0.0108784595742
3239.877,0.122452041981,0.0136684472537
3241.806,0.120827431003,0.0117744086816
3243.734,0.11921350794,0.0108794871065
3245.663,0.1176085986,0.0116540113267
3247.592,0.116013542631,0.0142270315121
3249.52,0.114429159257,0.0137725995623
3251.448,0.112854619042,0.0135888258179
3253.377,0.111289112976,0.0153676140031
3255.305,0.109734264184,0.0152434978696
3257.234,0.108188459755,0.0154221740264
3259.162,0.106653302388,0.0169280177376
3261.091,0.105127199595,0.0163086641465
3263.02,0.103610950176,0.0174640523511
3264.948,0.102105332497,0.0181948797744
3266.876,0.100609557977,0.0184109615821
3268.805,0.0991228584593,0.0215816801033
3270.733,0.0976467753634,0.0218988629668
3272.662,0.0961797774827,0.0176436330096
3274.591,0.0947226329747,0.0164549673488
3276.519,0.0932760895671,0.0164049980707
3278.448,0.0918386466962,0.018618242013
3280.376,0.0904117947124,0.0205181557576
3282.304,0.0889947858878,0.0204886872751
3284.233,0.0875868929187,0.0203525592192
3286.161,0.0861895755179,0.0188710734258
3288.09,0.084801384186,0.0170175787171
3290.019,0.0834230462267,0.0203038313635
3291.947,0.0820552685142,0.0203120619214
3293.875,0.080697333961,0.0215502148108
3295.804,0.0793485459035,0.023953283673
3297.732,0.078010302774,0.0245182527703
3299.661,0.0766812163537,0.0257351386448
3301.589,0.075362664648,0.0248748770481
3303.518,0.0740532798649,0.0205428992517
3305.447,0.0727537484543,0.02044447251
3307.375,0.071464736437,0.0240169172575
3309.303,0.0701855675789,0.0263559264067
3311.232,0.0689155860701,0.0254829785715
3313.16,0.0676561086359,0.0233926126822
3315.089,0.0664058287643,0.0212561544562
3317.017,0.0651660427538,0.0218368886118
3318.946,0.0639354645193,0.0233469573951
3320.875,0.0627147396575,0.0237959244484
3322.803,0.0615044933354,0.0219302585093
3324.731,0.0603040901725,0.0231483509475
3326.66,0.0591129152124,0.0263924926517
3328.588,0.0579322034733,0.0276646832142
3330.517,0.0567607301504,0.0268579901568
3332.445,0.0555997098351,0.0287720681898
3334.374,0.0544479381494,0.0271031585856
3336.302,0.0533066092579,0.0255825042567
3338.231,0.0521745392094,0.0282378736078
3340.159,0.0510529017416,0.0279079796897
3342.088,0.0499405333303,0.0240415752313
3344.016,0.0488385872864,0.026599095924
3345.945,0.0477459205122,0.0297022751817
3347.873,0.0466636658921,0.0307375268705
3349.802,0.0455907007551,0.0290600624108
3351.73,0.0445281375587,0.0289601875196
3353.659,0.043474874059,0.0304769100308
3355.587,0.0424320022864,0.0319458406328
3357.516,0.0413984404238,0.0306378478608
3359.444,0.040375260075,0.0308690540865
3361.373,0.0393613998496,0.0312764248749
3363.302,0.0383573929968,0.0310153958438
3365.23,0.0373637523364,0.0335080762292
3367.158,0.0363799548352,0.0320446888523
3369.087,0.0354054978842,0.0309879115973
3371.015,0.0344413918068,0.0346084414087
3372.944,0.0334866364929,0.0330412114804
3374.872,0.0325422218393,0.0309956332097
3376.801,0.0316071681626,0.0309931552984
3378.729,0.0306824449328,0.0332713607884
3380.658,0.0297670928933,0.0343494541602
3382.586,0.0288620610873,0.0374221802955
3384.515,0.027966410685,0.0374828969063
3386.443,0.0270810703027,0.0346757274331
3388.372,0.0262051215376,0.0322528790689
3390.3,0.0253394725791,0.0339180832684
3392.229,0.0244832254512,0.0335780299819
3394.157,0.0236372679165,0.0353883057214
3396.086,0.0228007224258,0.0356724404166
3398.014,0.0219744563149,0.0369535736052
3399.943,0.0211576124614,0.037683992714
3401.871,0.0203510377743,0.0388357609723
3403.8,0.0195538955579,0.0413861630694
3405.728,0.0187670122946,0.0397551751106
3407.657,0.0179895717154,0.0383502645324
3409.585,0.0172223798759,0.0405881932566
3411.514,0.0164646409339,0.0408021133368
3413.442,0.0157171405182,0.0408177831652
3415.371,0.0149791032134,0.042709161216
3417.299,0.0142512942215,0.0423867326662
3419.228,0.0135329585538,0.0386862873776
3421.156,0.0128248409857,0.0363397198149
3423.085,0.0121262069552,0.0334828095211
3425.013,0.0114377808109,0.0349157014493
3426.942,0.0107588484176,0.03659382519
3428.87,0.0100901136971,0.0367713034666
3430.799,0.009430882941,0.0394526710871
3432.727,0.00878183964423,0.0429977014454
3434.656,0.00814231052534,0.0426420824798
3436.584,0.00751295865237,0.0398149499699
3438.513,0.00689313117066,0.0379527194308
3440.441,0.00628347072147,0.0391208555698
3442.37,0.00568334487695,0.0379323429831
3444.298,0.00509337585155,0.036381404296
3446.227,0.00451295164422,0.0357513766687
3448.155,0.00394267404261,0.0399616017079
3450.084,0.00338195147246,0.0423003491441
3452.012,0.00283136529465,0.0406625192702
3453.941,0.00229034436168,0.0388801802517
3455.869,0.00175944960765,0.0417966001245
3457.798,0.00123813031188,0.0457001088471
3459.726,0.000726926981638,0.0447294563197
3461.655,0.000225309323042,0.0405808162203
3463.583,-0.000266202583401,0.0416348470795
3465.512,-0.000748118604815,0.043619340681
3467.44,-0.00121993908747,0.0445657391481
3469.369,-0.00168215347169,0.0462404269984
3471.297,-0.00213428253056,0.0488071825609
3473.226,-0.0025767952776,0.0476708011403
3475.154,-0.00300923291267,0.0463984980496
3477.083,-0.00343204402253,0.0508509260603
3479.011,-0.00384479023381,0.0525302243792
3480.94,-0.00424789970648,0.0493813273826
3482.868,-0.00464095449398,0.0487317257464
3484.797,-0.00502436232946,0.0522789868114
3486.725,-0.00539772569316,0.0516602345378
3488.654,-0.00576143189147,0.0489576312243
3490.582,-0.00611510383138,0.0521390601641
3492.511,-0.0064591083925,0.0558652541521
3494.439,-0.00679308890862,0.0558216949937
3496.368,-0.00711739183255,0.053209578227
3498.296,-0.00743168092488,0.0548283250167
3500.225,-0.00773628221163,0.0551475831315
3502.153,-0.00803087988016,0.0523536333422
3504.082,-0.00831577952973,0.0528017797319
3506.01,-0.00859068577448,0.0596272773038
3507.939,-0.00885588378686,0.0637355967152
3509.867,-0.00911109860781,0.0650941169036
3511.796,-0.00935659498301,0.0656580202332
3513.724,-0.00959211838018,0.0646391213115
3515.653,-0.00981791311819,0.0618435878377
3517.581,-0.0100337450916,0.0628529101578
3519.51,-0.0102398381924,0.0667929565589
3521.438,-0.010435978742,0.0684724691898
3523.367,-0.0106223702056,0.0708730525062
3525.295,-0.0107988193314,0.0719915818908
3527.224,-0.0109655091579,0.0680498111896
3529.152,-0.0111222668599,0.0688231664859
3531.081,-0.0112692550491,0.0685784635804
3533.009,-0.0114063213274,0.0683319252898
3534.938,-0.0115336078794,0.0664320208987
3536.866,-0.0116509827339,0.0653384385107
3538.795,-0.0117585676488,0.0653161336045
3540.723,-0.0118562510794,0.0672767504224
3542.652,-0.0119441343571,0.0660030649141
3544.58,-0.012022126364,0.0570514400201
3546.509,-0.0120903080045,0.0524349961678
3548.437,-0.0121486085875,0.0549288572482
3550.366,-0.0121970885909,0.053945294393
3552.294,-0.0122356977502,0.054602522778
3554.223,-0.0122644761163,0.0639121057534
3556.151,-0.0122833938518,0.0722970398641
3558.08,-0.0122924705808,0.0771610645361
3560.008,-0.0122916968924,0.0838534071927
3561.937,-0.0122810719842,0.0944659501809
3563.865,-0.0122606068721,0.100737812977
3565.794,-0.0122302803267,0.0952900195363
3567.722,-0.0121901237908,0.0883707565615
3569.651,-0.0121400956083,0.0951740590167
3571.579,-0.0120802476486,0.102406235721
3573.508,-0.0120105178288,0.0984863087921
3575.436,-0.0119309784453,0.0840071939512
3577.365,-0.0118415469884,0.0713133957703
3579.293,-0.0117423161811,0.0683661916486
3581.222,-0.011633183087,0.0660645992398
3583.15,-0.0115142608559,0.0615486285907
3585.079,-0.0113854261246,0.0575286587133
3587.007,-0.0112468124697,0.0561477525284
3588.936,-0.0110982761013,0.0647917967724
3590.864,-0.0109399710226,0.078092503116
3592.793,-0.0107717330169,0.093327075178
3594.721,-0.0105937365145,0.112675006099
3596.65,-0.0104057968716,0.130396194122
3598.578,-0.0102081089454,0.132648218113
3600.507,-0.0100004676653,0.110393169576
3602.435,-0.00978308831532,0.0815454455376
3604.364,-0.00955574539808,0.0623693509778
3606.292,-0.00931867462427,0.0472217373959
3608.221,-0.00907163006985,0.0364394659134
3610.149,-0.00881486787225,0.0336142209502
3612.078,-0.00854812168065,0.0313718354176
3614.006,-0.00827166805925,0.0281842324988
3615.935,-0.00798522023047,0.0265604754614
3617.863,-0.00768907518529,0.022690086001
3619.792,-0.00738292571931,0.0179227013182
3621.72,-0.00706708925034,0.0248377351616
3623.649,-0.00674123814718,0.0284732708976
3625.577,-0.00640571025442,0.0276848975586
3627.506,-0.00606015751407,0.0270704678345
3629.434,-0.00570493819752,0.0170649907599
3631.363,-0.00533968381999,0.0187744356647
3633.291,-0.00496477307965,0.0194623976627
3635.22,-0.00457981706494,0.0191946962725
3637.148,-0.0041852149008,0.0256150137485
3639.077,-0.0037805572489,0.0255186548937
3641.005,-0.00336626366098,0.0240147019507
3642.934,-0.00294190437189,0.0226285514961
3644.862,-0.00250791936018,0.0199783530001
3646.791,-0.00206385843391,0.0113780199623
3648.719,-0.00161018199841,0.0089840827363
3650.648,-0.00114641943495,0.00742863918629
3652.576,-0.00067305157566,0.0136706256179
3654.505,-0.000189587375022,0.0187122801881
3656.433,0.000303471908065,0.0144645458823
3658.362,0.000806637745889,0.0144804339209
3660.29,0.00131938845276,0.0196105620173
3662.219,0.00184225592777,0.0214161085724
3664.147,0.00237469805844,0.0203888721427
3666.076,0.00291726717063,0.0162523477086
3668.004,0.00346940072509,0.0101745899754
3669.933,0.00403167147446,0.0054204664008
3671.861,0.00460349645271,0.0074727190532
3673.79,0.00518546883928,0.00577126824755
3675.718,0.00577698524132,-0.00577698524132
3677.647,0.00637865926506,-0.00154038978159
3679.575,0.00698986709089,0.00441466136357
3681.504,0.00761124275182,0.00551318866433
3683.432,0.00824214200144,0.00796729901746
3685.361,0.00888321929956,0.00744701419888
3687.289,0.00953380997297,0.00153714929116
3689.218,0.0101945889083,-0.00872031416855
3691.146,0.0108648710055,-0.00536754966715
3693.075,0.011545351578,0.000849270882371
3695.003,0.0122353250989,0.00389628310888
3696.932,0.0129355073086,0.00589497889375
3698.86,0.0136451722534,0.00518531394897
