baseline wavenumber (cm-1),baseline absorbance (cm-1),baseline-subtracted absorbance (cm-1)
3199.379,0.134634590114,8.43769498715e-15
3201.308,0.13292182845,0.00288126464637
3203.236,0.131219800399,0.00373168044651
3205.165,0.129526740371,0.00328130572193
3207.093,0.127844403744,0.00239111632086
3209.021,0.126171910276,0.00400548788471
3210.95,0.12450840015,0.00370498305014
3212.878,0.122855598106,0.00251183341157
3214.807,0.121211789617,0.00205668304008
3216.736,0.119577834502,0.00303562956386
3218.664,0.117954572146,0.00255639520508
3220.593,0.116340318667,0.0021732768045
3222.521,0.114736747735,0.00120887037904
3224.449,0.113143019962,0.00275407899715
3226.378,0.111558316385,0.00469964378891
3228.306,0.109984280036,0.00507333646084
3230.235,0.108419278096,0.00539503505462
3232.164,0.106864129529,0.00582767275532
3234.092,0.105319632868,0.00702192176637
3236.021,0.103784185938,0.00974760421622
3237.949,0.102259380701,0.0116767357447
3239.877,0.100744418623,0.0112787290568
3241.806,0.0992385215954,0.0103268276414
3243.734,0.0977432509413,0.0128935629675
3245.663,0.0962570555504,0.0133997725098
3247.592,0.0947807135322,0.0137930254752
3249.52,0.0933149825665,0.0128853611109
3251.448,0.0918590947599,0.0130054559325
3253.377,0.0904123026435,0.0135394814463
3255.305,0.0889761062607,0.0115909613628
3257.234,0.0875490157814,0.0109297065475
3259.162,0.0861325108225,0.0117164733077
3261.091,0.0847251219804,0.0123308772109
3263.02,0.0833275865109,0.0155670864902
3264.948,0.0819406212403,0.0155828802254
3266.876,0.080563499129,0.0137430812814
3268.805,0.0791955135612,0.0139319503021
3270.733,0.0778380828736,0.0167505151249
3272.662,0.0764897989431,0.0179855876939
3274.591,0.0751513683852,0.0154364209608
3276.519,0.073823477386,0.0124461071688
3278.448,0.0725047484652,0.0162175804542
3280.376,0.0711965488898,0.0178689519694
3282.304,0.0698981924736,0.019326006455
3284.233,0.0686090134546,0.0180315404724
3286.161,0.0673303484622,0.0188962764241
3288.09,0.0660608710804,0.0225982818561
3290.019,0.0648012470712,0.0225453616421
3291.947,0.0635521217671,0.0199205356674
3293.875,0.0623128396223,0.0196284319839
3295.804,0.0610827655148,0.0173287375681
3297.732,0.0598631747938,0.0166944922435
3299.661,0.0586528023236,0.0175495629853
3301.589,0.0574529030263,0.0190365339493
3303.518,0.0562622321932,0.0194357360672
3305.447,0.0550814147328,0.0196370730869
3307.375,0.0539110551239,0.0195919267825
3309.303,0.0527505386742,0.0205659477303
3311.232,0.0515992711155,0.0201110290968
3313.16,0.0504584460896,0.0214166170863
3315.089,0.0493268801681,0.0226881809862
3317.017,0.048205746566,0.0215430657255
3318.946,0.0470938822817,0.019358154512
3320.875,0.04599187137,0.021210696102
3322.803,0.0449002774563,0.0252346664435
3324.731,0.0438185267017,0.0269820393551
3326.66,0.0427460656918,0.0251858053281
3328.588,0.0416840063611,0.0227170853199
3330.517,0.0406312469883,0.0223951353022
3332.445,0.0395888790814,0.0223791791416
3334.374,0.0385558213458,0.0249795066639
3336.302,0.0375331448626,0.0239335487591
3338.231,0.0365197887642,0.0215581451284
3340.159,0.0355168037049,0.0223988942634
3342.088,0.0345231492437,0.0226152314295
3344.016,0.0335398556081,0.0263893872909
3345.945,0.0325659027841,0.0297938465336
3347.873,0.0316023005723,0.0282758961324
3349.802,0.0306480493855,0.025042337757
3351.73,0.0297041385975,0.0259862485449
3353.659,0.0287695890478,0.0261707728242
3355.587,0.0278453696836,0.0255236791388
3357.516,0.0269305217711,0.0247388404041
3359.444,0.0260259938308,0.0272328760773
3361.373,0.0251308475555,0.026582485104
3363.302,0.0242455546528,0.0280338348145
3365.23,0.0233705664007,0.0299706849891
3367.158,0.0225054213079,0.0306225479633
3369.087,0.021649678307,0.0284989116051
3371.015,0.020804224638,0.0262259987523
3372.944,0.0199681832742,0.0267931631323
3374.872,0.019142421029,0.0310850125099
3376.801,0.0183260813024,0.0294536619504
3378.729,0.017520010481,0.0253360493593
3380.658,0.0167233723916,0.0250586957373
3382.586,0.015936992994,0.0279066338129
3384.515,0.0151600565418,0.0270420055223
3386.443,0.0143933685679,0.0253978979842
3388.372,0.0136361337529,0.0263487040112
3390.3,0.0128891372029,0.0271715117408
3392.229,0.012151604025,0.0261138361852
3394.157,0.0114242988988,0.0251535844531
3396.086,0.0107064673581,0.0256985665042
3398.014,0.00999885365563,0.0273401739396
3399.943,0.00930072375219,0.0286837096856
3401.871,0.00861280147349,0.0307943551019
3403.8,0.00793437320722,0.0296563475044
3405.728,0.00726614235232,0.0273724910248
3407.657,0.00660741572323,0.0272857410543
3409.585,0.00595887629212,0.0292357057356
3411.514,0.00531985130023,0.0296119186381
3413.442,0.0046910032929,0.0282575461865
3415.371,0.00407167993819,0.0230156545407
3417.299,0.00346252335465,0.0231512439556
3419.228,0.00286290163712,0.0254616712932
3421.156,0.00227343647738,0.024272606179
3423.085,0.00169351639704,0.0197630690674
3425.013,0.00112374266109,0.0177294868952
3426.942,0.000563524217927,0.0170378100588
3428.87,1.34419057645e-05,0.0187013058957
3430.799,-0.000527074900212,0.0209086578376
3432.727,-0.00105746578858,0.0194629039772
3434.656,-0.00157828095737,0.0146147714052
3436.584,-0.00208898042195,0.011869128001
3438.513,-0.00259009395356,0.00964103906626
3440.441,-0.00308110199435,0.00934917032549
3442.37,-0.00356251388877,0.00770989082195
3444.298,-0.00403383050577,0.00838337058461
3446.227,-0.004495540763,0.00712618869588
3448.155,-0.00494716595621,0.00672165296723
3450.084,-0.00538917457626,0.00917720651804
3452.012,-0.00582110834568,0.0120254952859
3453.941,-0.00624341532854,0.0139008498782
3455.869,-0.00665565767417,0.0138046519125
3457.798,-0.00705826301985,0.0112076615845
3459.726,-0.00745081394169,0.0124604166911
3461.655,-0.00783371765019,0.0102874728306
3463.583,-0.00820657714824,0.0101215675455
3465.512,-0.00856977921955,0.0117083620559
3467.44,-0.0089229472938,0.0107980104698
3469.369,-0.00926644772793,0.00954846531612
3471.297,-0.0095999243784,0.0118009756268
3473.226,-0.00992372317534,0.0108602439476
3475.154,-0.010237508402,0.010237508402
3477.083,-0.0105416055618,0.01057041381
3479.011,-0.0108356993647,0.013126207805
3480.94,-0.0111200948872,0.0139286463883
3482.868,-0.0113944972663,0.0148054949414
3484.797,-0.0116591911517,0.0155766075067
3486.725,-0.011913902107,0.0173657367376
3488.654,-0.0121588943552,0.0192512829128
3490.582,-0.0123939138867,0.0187898504075
3492.511,-0.0126192044977,0.0187578884157
3494.439,-0.0128345326055,0.0181852856632
3496.368,-0.0130401215793,0.0172178229843
3498.296,-0.0132357582632,0.0235400137975
3500.225,-0.0134216455999,0.0251991650581
3502.153,-0.01359759086,0.0278081437762
3504.082,-0.0137637765595,0.0279596726476
3506.01,-0.0139200303958,0.0285571475494
3507.939,-0.0140665144581,0.0307166711346
3509.867,-0.0142030768707,0.0342895016154
3511.796,-0.0143298592958,0.0382973110293
3513.724,-0.0144467302845,0.0370207725366
3515.653,-0.0145538110725,0.0333499295401
3517.581,-0.0146509906374,0.0310747245907
3519.51,-0.0147383697882,0.031148963137
3521.438,-0.0148158579293,0.0337807826236
3523.367,-0.0148835354429,0.0327916522932
3525.295,-0.0149413321603,0.035775760544
3527.224,-0.0149893080366,0.0385868012136
3529.152,-0.0150274133302,0.0383812999167
3531.081,-0.0150556875694,0.0371410004169
3533.009,-0.0150741014392,0.0361243389809
3534.938,-0.0150826740412,0.0380089855746
3536.866,-0.0150813964873,0.0397068892599
3538.795,-0.0150702674521,0.0385793142528
3540.723,-0.0150492984743,0.0363118073189
3542.652,-0.0150184678019,0.0363214092757
3544.58,-0.0149778074003,0.0400900079462
3546.509,-0.0149272750908,0.0392672124202
3548.437,-0.0148669232654,0.0383047075574
3550.366,-0.0147966893187,0.0376128219377
3552.294,-0.0147166460695,0.0411085393274
3554.223,-0.0146267104856,0.0451493022171
3556.151,-0.0145269758127,0.0475543689189
3558.08,-0.0144173385916,0.0508537077415
3560.008,-0.0142979124948,0.0524440764492
3561.937,-0.0141685736365,0.0559551904363
3563.865,-0.014029456116,0.0612396047059
3565.794,-0.0138804156205,0.0569871577614
3567.722,-0.0137216066762,0.0460313206154
3569.651,-0.0135528645436,0.0451120478045
3571.579,-0.0133743641755,0.0420992201342
3573.508,-0.0131859204056,0.036257283996
3575.436,-0.0129877286137,0.0373640553094
3577.365,-0.0127795832067,0.0381156794363
3579.293,-0.012561699991,0.0369855350259
3581.222,-0.0123338529468,0.0388040844236
3583.15,-0.0120962783073,0.0428523684721
3585.079,-0.0118487296259,0.0450535208925
3587.007,-0.0115914635627,0.0528888455499
3588.936,-0.0113242132441,0.0597539110102
3590.864,-0.011047255757,0.0650738402107
3592.793,-0.0107603038012,0.0724675715663
3594.721,-0.0104636548904,0.083984326072
3596.65,-0.0101570012974,0.0972807251426
3598.578,-0.00984066096281,0.10703969058
3600.507,-0.00951430573266,0.0953396367748
3602.435,-0.00917827397424,0.0695259945848
3604.364,-0.00883221710691,0.050799769922
3606.292,-0.0084764939247,0.038728187041
3608.221,-0.00811073542018,0.031002173811
3610.149,-0.00773532081418,0.0350430131219
3612.078,-0.00734986067248,0.0376935380201
3614.006,-0.00695475464269,0.0332986341535
3615.935,-0.0065495928638,0.0285419106643
3617.863,-0.00613479541022,0.0310519085205
3619.792,-0.00570993199414,0.0286514057635
3621.72,-0.00527544311678,0.0264080621403
3623.649,-0.00483087806352,0.0254611216701
3625.577,-0.00437669776236,0.0242877459783
3627.506,-0.00391243107191,0.0203397028803
3629.434,-0.00343855934696,0.0167833485919
3631.363,-0.00295459101934,0.0235747264686
3633.291,-0.00246102787059,0.0258543362705
3635.22,-0.00195735790578,0.0245536381039
3637.148,-0.00144410333325,0.0234733159078
3639.077,-0.000920731731252,0.0243954107973
3641.005,-0.000387785734929,0.0303215773047
3642.934,0.000155287504256,0.0275461175296
3644.862,0.000707924924367,0.0216068430934
3646.791,0.00127069980073,0.0183760201022
3648.719,0.00184302864464,0.0102741248983
3650.648,0.00242550515819,0.0124668429667
3652.576,0.00301752542588,0.024025333161
3654.505,0.00361970357662,0.0257935178931
3656.433,0.00423141526811,0.0189718597749
3658.362,0.00485329505603,0.0168974377854
3660.29,0.0054846981713,0.0188880906693
3662.219,0.00612627959641,0.0181196518703
3664.147,0.00677737413547,0.0150875808832
3666.076,0.00743865719777,0.0114206372529
3668.004,0.00810944316062,0.00951564528576
3669.933,0.0087904278601,0.0048126248034
3671.861,0.00948090524674,0.0115112103906
3673.79,0.0101815915834,0.00849070195748
3675.718,0.0108917603938,-0.00514628379422
3677.647,0.0116121483677,0.0101694143534
3679.575,0.0123420086019,0.0155585271304
3681.504,0.0130820982129,0.0133835845931
3683.432,0.013831649871,0.0123388747424
3685.361,0.0145914411192,0.00835407591307
3687.289,0.015360684201,0.003050818882
3689.218,0.0161401770864,0.000404854754311
3691.146,0.016929111592,0.00513800657237
3693.075,0.0177283061146,0.0047107922378
3695.003,0.018536932044,0.00519904288781
3696.932,0.0193558282037,0.00393892566264
3698.86,0.0201841455569,0.00311060830946
