baseline wavenumber (cm-1),baseline absorbance (cm-1),baseline-subtracted absorbance (cm-1)
3199.379,0.248773677221,1.26565424807e-14
3201.308,0.246732357562,0.00134306006563
3203.236,0.244701941842,0.00349229873946
3205.165,0.24268032382,0.00221378395897
3207.093,0.240669599524,0.00240092539368
3209.021,0.238668718387,0.00401737932725
3210.95,0.236676650267,0.00453604282001
3212.878,0.234695460554,0.00818215180355
3214.807,0.232723094071,0.00843053701832
3216.736,0.230760580961,0.010042871894
3218.664,0.228808930936,0.0102128765704
3220.593,0.226866119464,0.0103048457982
3222.521,0.224934160862,0.0104656434292
3224.449,0.223012045421,0.0115476106918
3226.378,0.221098783849,0.0156681833694
3228.306,0.219196359831,0.0139458083381
3230.235,0.217302799897,0.0138546754643
3232.164,0.215419093336,0.0142621815643
3234.092,0.213546209006,0.015499013612
3236.021,0.211682204082,0.0168761939048
3237.949,0.209829011176,0.0159220197876
3239.877,0.20798566143,0.013770821411
3241.806,0.206151206407,0.0141507436872
3243.734,0.204327548084,0.0167687684042
3245.663,0.202512794699,0.0193268642092
3247.592,0.200707894686,0.0178442126736
3249.52,0.198913776052,0.0169686591197
3251.448,0.197129500577,0.0180658583387
3253.377,0.195354150466,0.0187952169768
3255.305,0.193589566414,0.016857767059
3257.234,0.191833917941,0.0160548777539
3259.162,0.190089025313,0.0222084514469
3261.091,0.188353078476,0.0241383592815
3263.02,0.186626985012,0.0215109894057
3264.948,0.184911632073,0.0211189823115
3266.876,0.183206122293,0.0205455377337
3268.805,0.181509578731,0.0207676282309
3270.733,0.179823760374,0.0200993541849
3272.662,0.178146918449,0.0185218450929
3274.591,0.176479929897,0.0205655723046
3276.519,0.174823651229,0.0207267786304
3278.448,0.173176364314,0.0234378804613
3280.376,0.17153977707,0.0241259809508
3282.304,0.169913032985,0.0218441488144
3284.233,0.168295295971,0.0205465297083
3286.161,0.16668824331,0.0207119803566
3288.09,0.165090207934,0.0224047246165
3290.019,0.16350202593,0.0231227032231
3291.947,0.161924512958,0.0227749348652
3293.875,0.160356843144,0.0236083487202
3295.804,0.158798211042,0.0258537075991
3297.732,0.157250232652,0.0274586511109
3299.661,0.155711302188,0.0241698748585
3301.589,0.154183015222,0.0245441812557
3303.518,0.152663786394,0.0285646332605
3305.447,0.151154410939,0.0288875265738
3307.375,0.149655663662,0.0292018885855
3309.303,0.148166759543,0.0283125862316
3311.232,0.14668693399,0.0268732113933
3313.16,0.145217721295,0.0305818872878
3315.089,0.14375759738,0.0322069654219
3317.017,0.142308076109,0.0284614772569
3318.946,0.14086765383,0.0268956788044
3320.875,0.139437084924,0.0272253879915
3322.803,0.138017103341,0.028694646152
3324.731,0.136606964918,0.0295634411769
3326.66,0.135205945914,0.0290440715603
3328.588,0.133815498914,0.0293581223901
3330.517,0.132434181547,0.0309246637735
3332.445,0.131063425971,0.0318016051324
3334.374,0.129701810241,0.0316000000614
3336.302,0.128350746089,0.0328486667855
3338.231,0.127008831997,0.0343653205162
3340.159,0.125677459268,0.0324458370201
3342.088,0.124355246813,0.0324309417662
3344.016,0.123043565508,0.0355634100979
3345.945,0.12174105469,0.0355158824736
3347.873,0.120449064809,0.0320808156686
3349.802,0.119166255628,0.0306076312802
3351.73,0.117893957171,0.0333428499859
3353.659,0.116630849627,0.0383065935822
3355.587,0.115378242594,0.0386285373035
3357.516,0.114134836688,0.0373738653464
3359.444,0.112901921078,0.0381695823815
3361.373,0.111678216809,0.0363975502983
3363.302,0.110464365912,0.0366901738241
3365.23,0.109260989991,0.0349921727966
3367.158,0.108067457229,0.0337162849949
3369.087,0.106883156234,0.0377257764564
3371.015,0.105709314896,0.0388293724598
3372.944,0.104544715538,0.0353088526454
3374.872,0.103390565624,0.0334857886083
3376.801,0.102245667903,0.0328804941156
3378.729,0.101111209413,0.0323772927191
3380.658,0.099986013329,0.0336670935417
3382.586,0.0988712462626,0.0361172209213
3384.515,0.097765751816,0.0368596064003
3386.443,0.0966706761733,0.0361548637721
3388.372,0.095584883364,0.0363396990083
3390.3,0.0945094991451,0.0375007056498
3392.229,0.0934434079729,0.0365244399337
3394.157,0.0923877151778,0.0353350778606
3396.086,0.0913413256428,0.0371744358725
3398.014,0.0903053242715,0.0380846247045
3399.943,0.0892786363737,0.0367739952053
3401.871,0.0882623264262,0.039761717748
3403.8,0.0872553401655,0.0421893372651
3405.728,0.0862587216418,0.0413183385385
3407.657,0.0852714370184,0.0424216502815
3409.585,0.0842945099185,0.0445784194168
3411.514,0.0833269269322,0.0439282628351
3413.442,0.0823696912561,0.040622550304
3415.371,0.081421809907,0.039421833065
3417.299,0.0804842656546,0.0401346621429
3419.228,0.0795560859427,0.0385728020142
3421.156,0.0786382331142,0.0367905779573
3423.085,0.0777297550395,0.0354253438632
3425.013,0.0768315936347,0.0344768567742
3426.942,0.0759428171972,0.0367076336311
3428.87,0.0750643472162,0.0401180809658
3430.799,0.0741952724159,0.0387976681027
3432.727,0.0733364938587,0.0362203664195
3434.656,0.0724871206955,0.0347184430145
3436.584,0.0716480335621,0.0366342757969
3438.513,0.0708183620362,0.0363830079226
3440.441,0.0699989663266,0.0380313684746
3442.37,0.0691889964378,0.0411667734651
3444.298,0.068389292152,0.0403805407969
3446.227,0.0675990239004,0.0384910019611
3448.155,0.0668190110384,0.0384064030946
3450.084,0.0660484444239,0.039261893173
3452.012,0.0652881229857,0.0405202225794
3453.941,0.0645372580085,0.0420692982227
3455.869,0.063796627994,0.0429783772482
3457.798,0.063065464654,0.0444808413501
3459.726,0.0623445260633,0.0456043800665
3461.655,0.0616330643605,0.0450898684696
3463.583,0.0609318171936,0.047061123325
3465.512,0.0602400571279,0.0492039213441
3467.44,0.0595585013849,0.0525205508273
3469.369,0.0588864429564,0.0565989837578
3471.297,0.0582245786371,0.0571867584706
3473.226,0.0575722218458,0.0540738255436
3475.154,0.0569300489503,0.0542379107897
3477.083,0.0562973937962,0.0555464588633
3479.011,0.0556749123245,0.0615495232665
3480.94,0.0550619588076,0.0685866048326
3482.868,0.0544591687596,0.0742550969844
3484.797,0.0538659168799,0.076068031537
3486.725,0.0532828182558,0.0757099824711
3488.654,0.0527092680132,0.0751316490204
3490.582,0.0521458608129,0.0723571796568
3492.511,0.0515920122075,0.0713404683964
3494.439,0.051048296431,0.0707032936997
3496.368,0.0505141494628,0.0674815868901
3498.296,0.04999012511,0.0676956231251
3500.225,0.049475679779,0.0711621198995
3502.153,0.0489713468501,0.0753006878183
3504.082,0.0484766031562,0.078673393349
3506.01,0.0479919616511,0.0796895928328
3507.939,0.0475169195944,0.0858248012415
3509.867,0.047051969513,0.0982206243221
3511.796,0.0465966290936,0.107845601982
3513.724,0.046151370436,0.114191818213
3515.653,0.0457157316537,0.119367793893
3517.581,0.0452901644199,0.126786091958
3519.51,0.0448742272748,0.138167989822
3521.438,0.0444683514649,0.149087600167
3523.367,0.0440721159569,0.156797039002
3525.295,0.0436859315707,0.159809560147
3527.224,0.0433093977,0.158483430985
3529.152,0.0429429047376,0.15269035171
3531.081,0.0425860725041,0.14085804576
3533.009,0.0422392709654,0.127122929356
3534.938,0.0419021403691,0.122497454235
3536.866,0.0415750302542,0.122690713787
3538.795,0.0412576012951,0.120116201738
3540.723,0.040950182604,0.119256709127
3542.652,0.040652455282,0.119536263527
3544.58,0.0403647280148,0.114664628244
3546.509,0.04008670233,0.108438145647
3548.437,0.0398186664865,0.100546189877
3550.366,0.0395603424389,0.0964800573654
3552.294,0.0393119980192,0.0981741975494
3554.223,0.0390733756088,0.104338241082
3556.151,0.0388447226129,0.117149895406
3558.08,0.0386258018397,0.141351132528
3560.008,0.0384168402676,0.167837091374
3561.937,0.0382176211315,0.187124868559
3563.865,0.0380283509832,0.20401155955
3565.794,0.0378488334843,0.219941409054
3567.722,0.0376792547598,0.23738449026
3569.651,0.0375194388981,0.259033647004
3571.579,0.0373695515974,0.28139524885
3573.508,0.0372294373729,0.276068353918
3575.436,0.037099241496,0.235291056959
3577.365,0.0369788289087,0.182661207437
3579.293,0.0368683244555,0.138242809954
3581.222,0.0367676135054,0.106327025483
3583.15,0.036676800476,0.0867421552799
3585.079,0.0365957911631,0.0780383040351
3587.007,0.0365246695575,0.0845573182806
3588.936,0.0364633618818,0.0855940226153
3590.864,0.0364119317,0.0845945686145
3592.793,0.0363703256614,0.0971859754499
3594.721,0.0363385869034,0.116643170278
3596.65,0.036316682502,0.131292529772
3598.578,0.0363046351678,0.13319945374
3600.507,0.0363024324036,0.115687153114
3602.435,0.0363100764932,0.0846625243315
3604.364,0.0363275753662,0.0648361906225
3606.292,0.0363549108796,0.0566212546338
3608.221,0.0363921113898,0.0509867940412
3610.149,0.0364391383269,0.0432718423119
3612.078,0.0364960404743,0.0444318270032
3614.006,0.0365627588353,0.0430762290728
3615.935,0.0366393626198,0.0392801173551
3617.863,0.0367257724045,0.0390116288676
3619.792,0.0368220778263,0.0375715756301
3621.72,0.0369281790348,0.0352043435066
3623.649,0.0370441860937,0.0338955636791
3625.577,0.0371699787261,0.0321621663777
3627.506,0.0373056874221,0.0415829684806
3629.434,0.0374511714783,0.047198300808
3631.363,0.0376065818115,0.0322987093047
3633.291,0.0377717572915,0.0295526293724
3635.22,0.0379468692619,0.0256754834326
3637.148,0.0381317361656,0.0244655938127
3639.077,0.0383265497733,0.0258591635139
3641.005,0.0385311081008,0.0255494119244
3642.934,0.0387456233456,0.0230877449357
3644.862,0.0389698730969,0.0216060687498
3646.791,0.0392040899789,0.0276002715225
3648.719,0.039448031154,0.039083806408
3650.648,0.0397019496732,0.0362563225013
3652.576,0.0399655822721,0.0203007209362
3654.505,0.0402392024284,0.0167126393274
3656.433,0.0405225264511,0.0167805419769
3658.362,0.0408158482447,0.00836147753992
3660.29,0.0411188636911,0.00679579346971
3662.219,0.0414318871219,0.009227929751
3664.147,0.0417545939921,0.00704040146466
3666.076,0.04208731906,0.00687263061494
3668.004,0.0424297173541,0.0149705063127
3669.933,0.0427821440592,0.0210041144157
3671.861,0.043144233777,0.0156102220837
3673.79,0.0435163621193,0.0162330612399
3675.718,0.043898143261,0.0139833133687
3677.647,0.0442899732404,0.0121603657545
3679.575,0.0446914458058,0.0127283487003
3681.504,0.0451029774225,0.00620127923507
3683.432,0.0455241414117,0.00163529103394
3685.361,0.0459553746656,0.000981788960626
3687.289,0.0463962300786,0.00975460517691
3689.218,0.0468471649696,0.0175381009841
3691.146,0.0473077118064,0.0128768132513
3693.075,0.0477783483346,0.000799969971118
3695.003,0.0482585865952,-0.00406029205405
3696.932,0.0487489247606,-0.005830772807
3698.86,0.049248854445,-0.00633070249137
