wavenumber (/cm),baseline value (/cm),baseline-subtracted absorbance (/cm),
3.199378999999999905e+03,1.948367911654607099e-01,-2.200027797422732245e-03
3.201307999999999993e+03,1.928550786288525387e-01,5.087139517600536287e-04
3.203235999999999876e+03,1.908849423956269220e-01,1.219525409892119328e-03
3.205164999999999964e+03,1.889243387559993437e-01,4.561828249164401328e-04
3.207092999999999847e+03,1.869753004768384130e-01,-4.200088565007864538e-04
3.209021000000000186e+03,1.850368084396798452e-01,4.483325691141959446e-04
3.210949999999999818e+03,1.831078654090916302e-01,9.540470542662715658e-04
3.212878000000000156e+03,1.811904713259977484e-01,5.070976640431101856e-06
3.214806999999999789e+03,1.792826371923936790e-01,4.780016431465972104e-04
3.216735999999999876e+03,1.773853602437185373e-01,2.926021541382051172e-03
3.218664000000000215e+03,1.754996158267374540e-01,2.057242557979011011e-03
3.220592999999999847e+03,1.736234477750464578e-01,9.020753220929100813e-04
3.222521000000000186e+03,1.717588013121300605e-01,1.148911211876768590e-03
3.224449000000000069e+03,1.699047010912195788e-01,3.096208642935860400e-03
3.226378000000000156e+03,1.680601936485643932e-01,3.600829296952601233e-03
3.228306000000000040e+03,1.662271913817150448e-01,4.412099025643712036e-03
3.230235000000000127e+03,1.644037928360404521e-01,5.673079700096228528e-03
3.232164000000000215e+03,1.625909514753018925e-01,5.949531694616150279e-03
3.234092000000000098e+03,1.607895988745688953e-01,6.649853263306360063e-03
3.236021000000000186e+03,1.589978664108109285e-01,7.442293298074109664e-03
3.237949000000000069e+03,1.572176117641390647e-01,7.582701588736695530e-03
3.239876999999999953e+03,1.554479033594766690e-01,8.247891647093663625e-03
3.241806000000000040e+03,1.536878315047545129e-01,7.910116539317058049e-03
3.243733999999999924e+03,1.519392210541496979e-01,9.130575771888915781e-03
3.245663000000000011e+03,1.502002580964116873e-01,9.932866335004453262e-03
3.247592000000000098e+03,1.484718523236061571e-01,1.052890578819004608e-02
3.249519999999999982e+03,1.467548915391212461e-01,1.162760113246463778e-02
3.251447999999999865e+03,1.450484769966386978e-01,1.206493652807572037e-02
3.253376999999999953e+03,1.433517318328689782e-01,1.141113079727346102e-02
3.255304999999999836e+03,1.416664152444511160e-01,1.229456726843680681e-02
3.257233999999999924e+03,1.399907789776619893e-01,1.372654640392090286e-02
3.259161999999999807e+03,1.383265603433052604e-01,1.420548251528158668e-02
3.261090999999999894e+03,1.366720329735038320e-01,1.389710682231143357e-02
3.263019999999999982e+03,1.350280627886313312e-01,1.455032597109773285e-02
3.264947999999999865e+03,1.333954938203874008e-01,1.604906293691571451e-02
3.266876000000000204e+03,1.317734710941529386e-01,1.765471044835187353e-02
3.268804999999999836e+03,1.301611615183198012e-01,1.732751734552334666e-02
3.270733000000000175e+03,1.285602367461429196e-01,1.831982996769510041e-02
3.272661999999999807e+03,1.269690360672903751e-01,1.874864309979740185e-02
3.274590999999999894e+03,1.253883925733703109e-01,1.912338342986430462e-02
3.276518999999999778e+03,1.238191174673133332e-01,1.805796734012626859e-02
3.278447999999999865e+03,1.222595828703738619e-01,1.961537922403633338e-02
3.280376000000000204e+03,1.207114057183780176e-01,2.201542133105088839e-02
3.282304000000000087e+03,1.191737748083880888e-01,2.289051307193129547e-02
3.284233000000000175e+03,1.176459008204844281e-01,2.114460761982689396e-02
3.286161000000000058e+03,1.161293678645591854e-01,2.157062202728349254e-02
3.288090000000000146e+03,1.146226027736396702e-01,2.372981813002955631e-02
3.290018999999999778e+03,1.131263948676561881e-01,2.446826802529838973e-02
3.291947000000000116e+03,1.116415115778401912e-01,2.395269644803671438e-02
3.293875000000000000e+03,1.101671745300372152e-01,2.526221999134153906e-02
3.295804000000000087e+03,1.087026272330859911e-01,2.729140895411702461e-02
3.297731999999999971e+03,1.072493881393405957e-01,2.790966371550629432e-02
3.299661000000000058e+03,1.058059497393735171e-01,2.675591218319800513e-02
3.301588999999999942e+03,1.043738085996928078e-01,2.679550303479616424e-02
3.303518000000000029e+03,1.029514790967098747e-01,2.763939323726360975e-02
3.305447000000000116e+03,1.015397067786558694e-01,2.951098563011800291e-02
3.307375000000000000e+03,1.001392153050879585e-01,2.885689305435812368e-02
3.309302999999999884e+03,9.874927007352951591e-02,2.837804216744888031e-02
3.311231999999999971e+03,9.736915836451132122e-02,3.017152696855246452e-02
3.313159999999999854e+03,9.600031108701401195e-02,2.970180151785806189e-02
3.315088999999999942e+03,9.464130827497996279e-02,2.980243982974051242e-02
3.317016999999999825e+03,9.329355895154733957e-02,3.144327517359157831e-02
3.318945999999999913e+03,9.195566503649388324e-02,3.023755238996922445e-02
3.320875000000000000e+03,9.062832830637645998e-02,3.241771435004725532e-02
3.322802999999999884e+03,8.931222864905663528e-02,3.604024279539902453e-02
3.324731000000000222e+03,8.800667523373917334e-02,3.621049852548452463e-02
3.326659999999999854e+03,8.671099911265756077e-02,3.415481509941159510e-02
3.328588000000000193e+03,8.542654365140833761e-02,3.343532837932045032e-02
3.330516999999999825e+03,8.415197642730731786e-02,3.394056375261789160e-02
3.332445000000000164e+03,8.288861892011567534e-02,3.391048145388608770e-02
3.334373999999999796e+03,8.163516059300235383e-02,3.556740687894749398e-02
3.336302000000000135e+03,8.039290103987184466e-02,3.606403821010284449e-02
3.338231000000000222e+03,7.916055160973911597e-02,3.495372110834432666e-02
3.340159000000000106e+03,7.793939001067329286e-02,3.601542652627198748e-02
3.342088000000000193e+03,7.672814947752470971e-02,3.722358407144926717e-02
3.344016000000000076e+03,7.552808583251646724e-02,3.936532364893502445e-02
3.345945000000000164e+03,7.433795419635202961e-02,3.896377429854330776e-02
3.347873000000000047e+03,7.315898850540847320e-02,3.842147242656357431e-02
3.349802000000000135e+03,7.198996576622818111e-02,3.868086209185328528e-02
3.351730000000000018e+03,7.083209802934220534e-02,3.913439342926483544e-02
3.353659000000000106e+03,6.968418418714605878e-02,3.807114786582066479e-02
3.355586999999999989e+03,6.854741440432476907e-02,3.895329316668499908e-02
3.357516000000000076e+03,6.742060945910921532e-02,4.064640762367655036e-02
3.359443999999999960e+03,6.630493763034905896e-02,4.114472374638195040e-02
3.361373000000000047e+03,6.519924158211765075e-02,4.164160548146261798e-02
3.363302000000000135e+03,6.410410271882227562e-02,4.175337226348846409e-02
3.365230000000000018e+03,6.302008055617136506e-02,4.011870444332321650e-02
3.367157999999999902e+03,6.194660463553347540e-02,4.098946126965197223e-02
3.369086999999999989e+03,6.088312638127035825e-02,4.189636416760256221e-02
3.371014999999999873e+03,5.983074841469360194e-02,4.255144101217389618e-02
3.372943999999999960e+03,5.878837905741463032e-02,4.268817001768893116e-02
3.374871999999999844e+03,5.775709904489900737e-02,4.361680169299647636e-02
3.376800999999999931e+03,5.673583858460418128e-02,4.267106528682007571e-02
3.378728999999999814e+03,5.572565652614613896e-02,4.136031335154516375e-02
3.380657999999999902e+03,5.472550496283545840e-02,4.063601328238847232e-02
3.382585999999999785e+03,5.373642085844565486e-02,4.300248543893631092e-02
3.384514999999999873e+03,5.275737819211556712e-02,4.439702391038113927e-02
3.386443000000000211e+03,5.178939204178334421e-02,4.524714894679443544e-02
3.388371999999999844e+03,5.083145827243740200e-02,4.606048552620806147e-02
3.390300000000000182e+03,4.988457007616631245e-02,4.616556638395696854e-02
3.392228999999999814e+03,4.894774520380451577e-02,4.529788301817061491e-02
3.394157000000000153e+03,4.802195496159811228e-02,4.732591727129376036e-02
3.396085999999999785e+03,4.710623898622046113e-02,4.871803069941582631e-02
3.398014000000000124e+03,4.620154669807163827e-02,4.829648221125820706e-02
3.399943000000000211e+03,4.530693961967813266e-02,4.908459985267599190e-02
3.401871000000000095e+03,4.442334528559399587e-02,5.177482513793774110e-02
3.403800000000000182e+03,4.354984710418108307e-02,5.276264657822060666e-02
3.405728000000000065e+03,4.268735072415452692e-02,5.370530064550077531e-02
3.407657000000000153e+03,4.183496143972931236e-02,5.367868457260260850e-02
3.409585000000000036e+03,4.099356301376744227e-02,5.322224614422305100e-02
3.411514000000000124e+03,4.016228262632282053e-02,5.277984817323239097e-02
3.413442000000000007e+03,3.934198215441853108e-02,5.368601744125517383e-02
3.415371000000000095e+03,3.853181066396160759e-02,5.378892116662564726e-02
3.417298999999999978e+03,3.773260814612200420e-02,5.459434020119424691e-02
3.419228000000000065e+03,3.694354555264212081e-02,5.561129120061775177e-02
3.421155999999999949e+03,3.616544098886365077e-02,5.572498658618940670e-02
3.423085000000000036e+03,3.539748729237146563e-02,5.602402286632657269e-02
3.425012999999999920e+03,3.464048068265412894e-02,5.829128925568616282e-02
3.426942000000000007e+03,3.389363588314253661e-02,6.013219045871531776e-02
3.428869999999999891e+03,3.315772722748988599e-02,6.086890776695058625e-02
3.430798999999999978e+03,3.243199132496243919e-02,6.088646617023618646e-02
3.432726999999999862e+03,3.171718062336736921e-02,6.177074012867950215e-02
3.434655999999999949e+03,3.101255361782406794e-02,6.277173830575821789e-02
3.436583999999999833e+03,3.031884087029368402e-02,6.422022715760483669e-02
3.438512999999999920e+03,2.963532276173097557e-02,6.382510380250633331e-02
3.440440999999999804e+03,2.896270796826172500e-02,6.316207723339600788e-02
3.442369999999999891e+03,2.830029875668671480e-02,6.276995293642961826e-02
3.444297999999999774e+03,2.764878191727504486e-02,6.487866172974804391e-02
3.446226999999999862e+03,2.700748160268418019e-02,6.399838112853994954e-02
3.448155000000000200e+03,2.637706271733364360e-02,6.254560987945195771e-02
3.450083999999999833e+03,2.575687129972692446e-02,6.504490773595478226e-02
3.452012000000000171e+03,2.514755036843752123e-02,6.641001558728876208e-02
3.453940999999999804e+03,2.454846784781494762e-02,6.598686016188887171e-02
3.455869000000000142e+03,2.396024487058667773e-02,6.634658824373651509e-02
3.457797999999999774e+03,2.338227124694824965e-02,6.874221070999098071e-02
3.459726000000000113e+03,2.281514622378111312e-02,7.134309697848312259e-02
3.461655000000000200e+03,2.225828149712327786e-02,7.002287689770131385e-02
3.463583000000000084e+03,2.171225442802082739e-02,6.721997037739713132e-02
3.465512000000000171e+03,2.117649859834713766e-02,6.728296769094832541e-02
3.467440000000000055e+03,2.065156948330226783e-02,6.792075438205708027e-02
3.469369000000000142e+03,2.013692255061627634e-02,6.890467251660292725e-02
3.471297000000000025e+03,1.963309138963253986e-02,6.996591801095369823e-02
3.473226000000000113e+03,1.913955335392714119e-02,6.845869793486292210e-02
3.475153999999999996e+03,1.865682014700809077e-02,6.932549057774672896e-02
3.477083000000000084e+03,1.818439100828328492e-02,7.292593952845988214e-02
3.479010999999999967e+03,1.772275575542536785e-02,7.276390147696121247e-02
3.480940000000000055e+03,1.727143551368470753e-02,6.820900520197287209e-02
3.482867999999999938e+03,1.683089821488792381e-02,6.887849226322795282e-02
3.484797000000000025e+03,1.640068687013496174e-02,7.311664861960520678e-02
3.486724999999999909e+03,1.598124752539575866e-02,7.225649633389874538e-02
3.488653999999999996e+03,1.557214507762694211e-02,6.978927208602414556e-02
3.490581999999999880e+03,1.517380368695242510e-02,6.998287275093295623e-02
3.492510999999999967e+03,1.478581013616064865e-02,7.029075915525750951e-02
3.494438999999999851e+03,1.440856669955081770e-02,6.848681387257082864e-02
3.496367999999999938e+03,1.404168204574673950e-02,6.638412407979654706e-02
3.498295999999999822e+03,1.368553656319448919e-02,6.875533071670042462e-02
3.500224999999999909e+03,1.333976080637100381e-02,6.887675592262926250e-02
3.502152999999999793e+03,1.300471327787988685e-02,6.703956045101927552e-02
3.504081999999999880e+03,1.268004641804409971e-02,6.542891951746582224e-02
3.506010000000000218e+03,1.236609684361411610e-02,6.849436004509501519e-02
3.507938999999999851e+03,1.206253888075892178e-02,6.893220487745393976e-02
3.509867000000000189e+03,1.176968726039362423e-02,6.769806771787378885e-02
3.511795999999999822e+03,1.148723819452612815e-02,7.005213307809082801e-02
3.513724000000000160e+03,1.121548452821485853e-02,7.122922385144747626e-02
3.515652999999999793e+03,1.095414435933150799e-02,6.917630141040465030e-02
3.517581000000000131e+03,1.070348864708492442e-02,6.717192831440293999e-02
3.519510000000000218e+03,1.046325737518216670e-02,6.466466135523329939e-02
3.521438000000000102e+03,1.023369961699671649e-02,6.398584955918845685e-02
3.523367000000000189e+03,1.001457724207810429e-02,5.972084174104125287e-02
3.525295000000000073e+03,9.806117437953787430e-03,5.919347823575488166e-02
3.527224000000000160e+03,9.608103960019320766e-03,5.874805696184465242e-02
3.529152000000000044e+03,9.420742109959689969e-03,5.936673388316676681e-02
3.531081000000000131e+03,9.243837529009368836e-03,6.338317146725058748e-02
3.533009000000000015e+03,9.077573633007318676e-03,6.662903710185569262e-02
3.534938000000000102e+03,8.921777949037590361e-03,6.630767722128483310e-02
3.536865999999999985e+03,8.776612007100226265e-03,6.476862199674082721e-02
3.538795000000000073e+03,8.641925220114643480e-03,6.554704678028966391e-02
3.540722999999999956e+03,8.517857232238412735e-03,6.507321726488074498e-02
3.542652000000000044e+03,8.404279342236975481e-03,6.324961735239559291e-02
3.544579999999999927e+03,8.301309308421878086e-03,5.963536308620054349e-02
3.546509000000000015e+03,8.208840315404586363e-03,5.521787554429419265e-02
3.548436999999999898e+03,8.126968235650622319e-03,5.717774216564325274e-02
3.550365999999999985e+03,8.055608139617476127e-03,6.099771239004997403e-02
3.552293999999999869e+03,7.994834013921092719e-03,6.009012504804189803e-02
3.554222999999999956e+03,7.944582814872092058e-03,6.386058245349951479e-02
3.556150999999999840e+03,7.904906643240394715e-03,6.944594749604998674e-02
3.558079999999999927e+03,7.875764341175539585e-03,7.176756932909639231e-02
3.560007999999999811e+03,7.857186123601422878e-03,7.348997853828070914e-02
3.561936999999999898e+03,7.849152718520713279e-03,7.516626222133571122e-02
3.563864999999999782e+03,7.851672455011282636e-03,7.518006715885711122e-02
3.565793999999999869e+03,7.864747946911165855e-03,6.645047493795691596e-02
3.567722000000000207e+03,7.888365637462868563e-03,5.230267853518444365e-02
3.569650999999999840e+03,7.922550026346897312e-03,5.657542834219653205e-02
3.571579000000000178e+03,7.967265670959733370e-03,6.161359958730366904e-02
3.573507999999999811e+03,8.022558956827907650e-03,6.045889257455788757e-02
3.575436000000000149e+03,8.088372555505429773e-03,5.991142528134890677e-02
3.577364999999999782e+03,8.164774738354196870e-03,5.789632907242109328e-02
3.579293000000000120e+03,8.251686291089299630e-03,5.510882113840626095e-02
3.581222000000000207e+03,8.349197370925764972e-03,5.593049534109278964e-02
3.583150000000000091e+03,8.457206877725553795e-03,5.851924111580519838e-02
3.585079000000000178e+03,8.575826854542611954e-03,5.936423177276956009e-02
3.587007000000000062e+03,8.704934315399981415e-03,5.478101534597673572e-02
3.588936000000000149e+03,8.844663189204737819e-03,5.606916476995826848e-02
3.590864000000000033e+03,8.994868604126793343e-03,7.175333719795545795e-02
3.592793000000000120e+03,9.155706374908589851e-03,8.234176658577063712e-02
3.594721000000000004e+03,9.327009743891778726e-03,9.220639771592831213e-02
3.596650000000000091e+03,9.508956411661273478e-03,1.057505199857914358e-01
3.598577999999999975e+03,9.701357734705595703e-03,1.142332424876738584e-01
3.600507000000000062e+03,9.904413299455683273e-03,1.001951015089947439e-01
3.602434999999999945e+03,1.011791257656113885e-02,7.701880025069041125e-02
3.604364000000000033e+03,1.034207703829892466e-02,6.344686463763354878e-02
3.606291999999999916e+03,1.057667426946196088e-02,5.258778544953124356e-02
3.608221000000000004e+03,1.082194762818389222e-02,3.997391813548734074e-02
3.610148999999999887e+03,1.107764281341161450e-02,3.970351558141299586e-02
3.612077999999999975e+03,1.134402506911413866e-02,4.219221267474515535e-02
3.614005999999999858e+03,1.162081820840299429e-02,3.450710052201244604e-02
3.615934999999999945e+03,1.190830936108966398e-02,3.327702370269280951e-02
3.617862999999999829e+03,1.220620045443965296e-02,3.043268562662776455e-02
3.619791999999999916e+03,1.251480050411402090e-02,2.150501148416050778e-02
3.621719999999999800e+03,1.283378955152159051e-02,2.555749721690053766e-02
3.623648999999999887e+03,1.316349849817655127e-02,3.048408059815416182e-02
3.625577000000000226e+03,1.350358549964880694e-02,3.192368630870051627e-02
3.627505999999999858e+03,1.385440334328436052e-02,2.982592618264301443e-02
3.629434000000000196e+03,1.421558829882130226e-02,1.374751692709597073e-02
3.631362999999999829e+03,1.458751503944455408e-02,2.179007517585918041e-02
3.633291000000000167e+03,1.496979794903907646e-02,2.776890618519728404e-02
3.635219999999999800e+03,1.536283358664292109e-02,2.852228720583660504e-02
3.637148000000000138e+03,1.576621445030212953e-02,3.169289805348840527e-02
3.639077000000000226e+03,1.618035898488656699e-02,3.193108344915768226e-02
3.641005000000000109e+03,1.660483780260690878e-02,3.418668145343262132e-02
3.642934000000000196e+03,1.704009123417904448e-02,3.220280778532969013e-02
3.644862000000000080e+03,1.748566800596051962e-02,3.155294515486023466e-02
3.646791000000000167e+03,1.794203033451324814e-02,2.196083027399781118e-02
3.648719000000000051e+03,1.840870506035585663e-02,2.334648826230578678e-03
3.650648000000000138e+03,1.888617628589628339e-02,-1.227478216554334089e-03
3.652576000000000022e+03,1.937394896579647252e-02,1.885464701115691089e-02
3.654505000000000109e+03,1.987252908832104481e-02,3.063464770334983767e-02
3.656432999999999993e+03,2.038139972228592001e-02,2.598881153820126189e-02
3.658362000000000080e+03,2.090108874179108511e-02,2.479970980263429547e-02
3.660289999999999964e+03,2.143105732981354095e-02,2.589771048581368529e-02
3.662219000000000051e+03,2.197185524630640430e-02,2.652106904359552431e-02
3.664146999999999935e+03,2.252292178839354619e-02,2.736457442104739402e-02
3.666076000000000022e+03,2.308482860186700236e-02,2.548390686765694690e-02
3.668003999999999905e+03,2.365699309801527761e-02,1.928599689490900770e-02
3.669932999999999993e+03,2.424000880847287931e-02,2.640563313229371545e-03
3.671860999999999876e+03,2.483327125868228791e-02,7.429187045168927916e-03
3.673789999999999964e+03,2.543739586612048242e-02,1.468521608172140835e-02
3.675717999999999847e+03,2.605175627039102437e-02,-7.912415322245902605e-03
3.677646999999999935e+03,2.667698977481691713e-02,-1.628066293567598244e-03
3.679574999999999818e+03,2.731244813314859243e-02,8.786156941146372468e-03
3.681503999999999905e+03,2.795879053455507801e-02,1.359670324892814364e-02
3.683431999999999789e+03,2.861534684695143937e-02,1.829640893996858919e-02
3.685360999999999876e+03,2.928279814534207048e-02,1.583162619510064539e-02
3.687289000000000215e+03,2.996045241179601248e-02,8.569568815334271950e-03
3.689217999999999847e+03,3.064901260717078912e-02,-9.055360529944544989e-03
3.691146000000000186e+03,3.134776482768941719e-02,-6.652171984264765303e-03
3.693074999999999818e+03,3.205743392004833936e-02,-6.577573810814252298e-04
3.695003000000000156e+03,3.277728409462454806e-02,4.726354841997293388e-03
3.696931999999999789e+03,3.350806208396761576e-02,6.307059719327601233e-03
3.698860000000000127e+03,3.424901021260851053e-02,7.592392799622316168e-03
