baseline wavenumber (cm-1),baseline absorbance (cm-1),baseline-subtracted absorbance (cm-1)
3199.379,0.153122409785,1.90958360236e-14
3201.308,0.151722209781,0.00302963495721
3203.236,0.150329768298,0.00487087862406
3205.165,0.148943640893,0.00710659664888
3207.093,0.147565264712,0.00540552271343
3209.021,0.146193919359,0.00272248618003
3210.95,0.144828899027,0.00300846072258
3212.878,0.143471618977,0.00654910274576
3214.807,0.142120671242,0.00918479727093
3216.736,0.140776761631,0.00760188994088
3218.664,0.139440581358,0.0059869936948
3220.593,0.138110744345,0.00778332216664
3222.521,0.136788629375,0.00825988977988
3224.449,0.135473545233,0.00710251865043
3226.378,0.134164815293,0.00438618036091
3228.306,0.132863796453,0.00361148910211
3230.235,0.131569139111,0.00570721790933
3232.164,0.130281519892,0.00727382226961
3234.092,0.12900160083,0.00596453684342
3236.021,0.127728054208,0.00592048516287
3237.949,0.126462200449,0.0075936976605
3239.877,0.125203377518,0.0100038397061
3241.806,0.12395093797,0.00659692415516
3243.734,0.122706180341,0.00511955502729
3245.663,0.121467813391,0.00562154271982
3247.592,0.120236484563,0.00830996241947
3249.52,0.119012826712,0.00801689127017
3251.448,0.117796199689,0.00687376897547
3253.377,0.116585977935,0.0071125968152
3255.305,0.115383416214,0.00743170558896
3257.234,0.114187267058,0.0081173928028
3259.162,0.11299877064,0.00983100799124
3261.091,0.111816694081,0.00932249524431
3263.02,0.110641655646,0.00931942794834
3264.948,0.109474259006,0.0101198984791
3266.876,0.108313893194,0.010704604734
3268.805,0.107159961831,0.0138397349242
3270.733,0.106013661322,0.0130245475129
3272.662,0.104873802557,0.00760825546384
3274.591,0.103740981916,0.00641013503578
3276.519,0.102615781184,0.00690610297697
3278.448,0.10149703314,0.00959666947787
3280.376,0.100385897711,0.0107285266296
3282.304,0.0992817931095,0.0101187931637
3284.233,0.0981841521388,0.0097401377632
3286.161,0.0970941128401,0.00796501987998
3288.09,0.0960105444674,0.00567751779884
3290.019,0.094934014218,0.0078250073124
3291.947,0.0938650746968,0.00681773132771
3293.875,0.0928031660035,0.00877724438765
3295.804,0.0917477428268,0.0123773961604
3297.732,0.0906998994363,0.0129435858563
3299.661,0.0896585488575,0.0133956308655
3301.589,0.0886247707697,0.0115768869681
3303.518,0.087597492789,0.00751774020405
3305.447,0.0865772529315,0.00700962668034
3307.375,0.0855645746211,0.0100459580788
3309.303,0.0845589271387,0.0116358570521
3311.232,0.0835597943539,0.0100983477667
3313.16,0.0825682121743,0.00736810643485
3315.089,0.0815831519875,0.00486231450399
3317.017,0.0806056351105,0.00616379782187
3318.946,0.0796346475217,0.00755427393792
3320.875,0.0786706980562,0.00762213526031
3322.803,0.0777142809566,0.00592768811242
3324.731,0.0767648946851,0.00760991578699
3326.66,0.0758220522922,0.0105374948623
3328.588,0.0748867313234,0.0105721790173
3330.517,0.0739579615285,0.00905022607885
3332.445,0.0730367058624,0.01002707661
3334.374,0.0721220086656,0.00752268960595
3336.302,0.0712148183021,0.00625207748277
3338.231,0.0703141937033,0.0100527324061
3340.159,0.0694210686425,0.00943620417662
3342.088,0.0685345166417,0.00544051620984
3344.016,0.0676554568837,0.00772764227737
3345.945,0.0667829774808,0.00989800907538
3347.873,0.0659179830255,0.0105340537682
3349.802,0.0650595762206,0.00812196628423
3351.73,0.064208647068,0.00807326943865
3353.659,0.0633643128611,0.00926128099318
3355.587,0.0625274490112,0.0099187250513
3357.516,0.0616971874023,0.0083457722662
3359.444,0.0608743888551,0.00807688982683
3361.373,0.0600581998441,0.0092039046742
3363.302,0.0592490489565,0.0104507387722
3365.23,0.0584473501867,0.0121687419997
3367.158,0.057652682245,0.0105783902305
3369.087,0.05686463843,0.00964349863661
3371.015,0.0560840357909,0.0119155598828
3372.944,0.055310064574,0.00979455485389
3374.872,0.0545435272376,0.00867794248844
3376.801,0.0537836286187,0.00873027009761
3378.729,0.053031156585,0.00976071645654
3380.658,0.052285330564,0.00963926258264
3382.586,0.0515469238331,0.0115416236247
3384.515,0.0508151704101,0.0110194601368
3386.443,0.0500908289819,0.00812710288916
3388.372,0.0493731481569,0.00567890885315
3390.3,0.0486628720313,0.00812374476842
3392.229,0.0479592638043,0.00814404156311
3394.157,0.0472630529815,0.00912226997413
3396.086,0.0465735173525,0.00706440845365
3398.014,0.0458913718324,0.00798409566991
3399.943,0.0452159088013,0.00893551139477
3401.871,0.0445478285839,0.0091775327827
3403.8,0.0438864381509,0.0102700361239
3405.728,0.0432324232362,0.00794214464009
3407.657,0.0425851054011,0.00758471164122
3409.585,0.0419451557891,0.0102963280884
3411.514,0.0413119105521,0.00796030212356
3413.442,0.0406860262428,0.0055122958031
3415.371,0.0400668536037,0.00731058498923
3417.299,0.0394550345971,0.00763887018402
3419.228,0.038849934556,0.00297003916274
3421.156,0.0382521808522,-0.000833804222243
3423.085,0.0376611534091,-0.004294631626
3425.013,0.0370774650079,-0.00409151534655
3426.942,0.0365005101628,-0.00412509320132
3428.87,0.0359308870644,-0.00598648192942
3430.799,0.0353680048172,-0.00498995973486
3432.727,0.0348124470215,-0.0028585402187
3434.656,0.0342636373724,-0.00473063423883
3436.584,0.0337221448793,-0.00811666625808
3438.513,0.0331874078282,-0.0120138507676
3440.441,0.0326599806379,-0.0118826633428
3442.37,0.0321393161847,-0.0126073238669
3444.298,0.0316259542971,-0.0139715521946
3446.227,0.0311193624419,-0.0154360510096
3448.155,0.030620065857,-0.0107883666758
3450.084,0.0301275465998,-0.00828078626423
3452.012,0.0296423153176,-0.00975653749491
3453.941,0.0291638686584,-0.0133385376163
3455.869,0.0286927026789,-0.0110009003945
3457.798,0.0282283286177,-0.0079215460442
3459.726,0.0277712279409,-0.00887150086119
3461.655,0.0273209264777,-0.0109608739153
3463.583,0.0268778911036,-0.00938218707049
3465.512,0.0264416622384,-0.00888278222226
3467.44,0.0260126921671,-0.00803129117645
3469.369,0.0255905358998,-0.00633803413089
3471.297,0.0251756311312,-0.00481982399479
3473.226,0.0247675474619,-0.0059320071809
3475.154,0.024366707996,-0.00511117377984
3477.083,0.0239726969247,0.000217639676939
3479.011,0.0235859227614,0.00188360114435
3480.94,0.0232059842882,-0.00184593172576
3482.868,0.0228332754276,-0.00187350589362
3484.797,0.0224674095524,0.00105781030006
3486.725,0.0221087659945,0.000625995958371
3488.654,0.0217569727172,0.000514835632101
3490.582,0.0214123944621,0.00531104635463
3492.511,0.0210746737828,0.00920734380538
3494.439,0.0207441608304,0.00984312310775
3496.368,0.0204205127491,0.00793792250817
3498.296,0.0201040650994,0.0116092675601
3500.225,0.019794489616,0.0123858399099
3502.153,0.019492107269,0.00939852246916
3504.082,0.0191966043837,0.0111854839616
3506.01,0.0189082873394,0.0194203288539
3507.939,0.0186268570521,0.0233068334362
3509.867,0.0183526053105,0.0249573107918
3511.796,0.0180852476211,0.0263830633058
3513.724,0.0178250611822,0.027096095191
3515.653,0.0175717760909,0.026747944924
3517.581,0.0173256549547,0.0286841499579
3519.51,0.0170864424613,0.0331162260922
3521.438,0.0168543866279,0.0346689126747
3523.367,0.0166292467325,0.037241672099
3525.295,0.0164112562017,0.0377239909427
3527.224,0.0162001889043,0.0332873275214
3529.152,0.0159962636763,0.0363361936168
3531.081,0.0157992689769,0.0374793118379
3533.009,0.0156094090515,0.0385465598154
3534.938,0.0154264869501,0.0357248321644
3536.866,0.0152506923275,0.0358025776614
3538.795,0.015081842824,0.0368963235562
3540.723,0.0149201135041,0.0383478537455
3542.652,0.0147653365987,0.0359841832639
3544.58,0.0146176725814,0.0261773339889
3546.509,0.014476968274,0.0223490703392
3548.437,0.0143433695595,0.0279208576719
3550.366,0.01421673785,0.0264645519509
3552.294,0.0140972044382,0.0259068388247
3554.223,0.0139846453267,0.0366036494271
3556.151,0.0138791772176,0.0448300110974
3558.08,0.0137806907041,0.0492037427336
3560.008,0.0136892878977,0.0560706433668
3561.937,0.0136048739822,0.0669399556953
3563.865,0.0135275364786,0.0727006046313
3565.794,0.0134571951611,0.0646187171001
3567.722,0.0133939229601,0.0616480258926
3569.651,0.0133376542406,0.0722678243807
3571.579,0.0132884473423,0.0788832902499
3573.508,0.0132462512208,0.0746446817622
3575.436,0.0132111096252,0.0608862319294
3577.365,0.0131829861017,0.0487375637821
3579.293,0.0131619098088,0.046105754196
3581.222,0.0131478588833,0.0432849724116
3583.15,0.0131408478931,0.0377511969871
3585.079,0.0131408695656,0.0302403090456
3587.007,0.0131479238781,0.0295064782244
3588.936,0.0131620181485,0.0452580768681
3590.864,0.0131831377638,0.0552627330539
3592.793,0.0132113046322,0.0659325344459
3594.721,0.0132464895502,0.0838832991893
3596.65,0.0132887290166,0.103751602531
3598.578,0.0133379792373,0.10820553638
3600.507,0.0133942913017,0.0879677828922
3602.435,0.0134576068251,0.0618567568664
3604.364,0.0135279914875,0.0432742929561
3606.292,0.0136053723136,0.025146270262
3608.221,0.0136898295739,0.0132271824548
3610.149,0.0137812757027,0.0147980227911
3612.078,0.0138798055611,0.0121871104401
3614.006,0.0139853169926,0.0118324329316
3615.935,0.014097919449,0.0101828851604
3617.863,0.0142174961832,0.00380787529159
3619.792,0.0143441712375,0.000267170114943
3621.72,0.0144778132745,0.00957454698027
3623.649,0.0146185609268,0.0133299885526
3625.577,0.0147662682664,0.0104793599556
3627.506,0.0149210885167,0.00267114841846
3629.434,0.0150828611591,0.000829400035697
3631.363,0.0152517540074,0.00821938720356
3633.291,0.0154275919524,0.00701302262352
3635.22,0.0156105573987,0.00927067175318
3637.148,0.0158004606465,0.0139508786843
3639.077,0.0159974986908,0.0150582983374
3641.005,0.0162014672413,0.0146359935896
3642.934,0.0164125778835,0.0145643755179
3644.862,0.0166306117367,0.0101049588688
3646.791,0.016855794977,-0.00492362071234
3648.719,0.0170878941328,-0.00923284510829
3650.648,0.0173271499711,-0.000137723103622
3652.576,0.0175733144297,0.0112394824974
3654.505,0.0178266428659,0.00957505530449
3656.433,0.0180868726272,0.00772076913967
3658.362,0.0183542736615,0.0117821864619
3660.29,0.0186285687255,0.0170623238248
3662.219,0.0189100423577,0.0191951835596
3664.147,0.0191984027244,0.0186076217373
3666.076,0.0194939489546,0.0137760399264
3668.004,0.019796374624,0.00272611602593
3669.933,0.0201059934522,-0.00580295089689
3671.861,0.0204224844244,0.00277977980288
3673.79,0.0207461758505,-0.0107578002314
3675.718,0.0210767321254,-0.0210767321254
3677.647,0.0214144961496,-0.00040721827631
3679.575,0.0217591177271,0.00452360743211
3681.504,0.0221109543493,0.00678169702039
3683.432,0.0224696412295,0.00800898001783
3685.361,0.0228355504497,0.00578923475199
3687.289,0.0232083026326,-0.00370309693162
3689.218,0.0235882844508,-0.0103299199506
3691.146,0.0239751019364,-0.00329734999061
3693.075,0.0243691563526,0.00406357386072
3695.003,0.0247700391409,0.00319721042947
3696.932,0.0251781661551,0.00471317115415
3698.86,0.0255931142461,0.00429822306307
