baseline wavenumber (cm-1),baseline absorbance (cm-1),baseline-subtracted absorbance (cm-1)
3199.379,0.135176137555,1.83186799063e-14
3201.308,0.133460556123,0.00168971996546
3203.236,0.131755709766,0.0025369441793
3205.165,0.130059829972,0.00345488310586
3207.093,0.128374675039,0.00278384876095
3209.021,0.126699363265,0.00214351085282
3210.95,0.125033033372,0.00246679188852
3212.878,0.123377413022,0.00353528705511
3214.807,0.121730784766,0.00444276664234
3216.736,0.120094009883,0.00611169361883
3218.664,0.118467929221,0.00581913305594
3220.593,0.116850855975,0.00548506350464
3222.521,0.115244466737,0.00609823264049
3224.449,0.113647920659,0.00716461865767
3226.378,0.112060397315,0.00817480223808
3228.306,0.11048354266,0.0100284444795
3230.235,0.108915720953,0.0109406430649
3232.164,0.107357752618,0.0100781179345
3234.092,0.105810437652,0.00876459554872
3236.021,0.104272170955,0.00942112603287
3237.949,0.102744547412,0.0108030167176
3239.877,0.101226767028,0.0108065033987
3241.806,0.0997180502329,0.011247211527
3243.734,0.0982199612732,0.0119002595977
3245.663,0.096730946115,0.0110376287086
3247.592,0.0952517843293,0.0127883358916
3249.52,0.093783235058,0.0135963693315
3251.448,0.0923245289458,0.0143767361692
3253.377,0.0908749170619,0.0148254394069
3255.305,0.0894359023736,0.0163189728623
3257.234,0.0880059921269,0.0173095876592
3259.162,0.0865866688623,0.0160442111265
3261.091,0.0851764602528,0.0164786735978
3263.02,0.0837761050159,0.0184294586942
3264.948,0.0823863214397,0.0177192213016
3266.876,0.0810063810227,0.0181541697566
3268.805,0.0796355756876,0.0194145396406
3270.733,0.0782753266944,0.0193251485974
3272.662,0.0769242229964,0.018115617641
3274.591,0.0755829726711,0.01876979171
3276.519,0.0742522633663,0.0197324993373
3278.448,0.0729307146781,0.0210564943804
3280.376,0.0716196967971,0.0227851399961
3282.304,0.0703185220752,0.0233122181219
3284.233,0.0690265232888,0.0226953611034
3286.161,0.0677450399908,0.0227501721431
3288.09,0.0664727428416,0.0229649450035
3290.019,0.065210299065,0.0240550954971
3291.947,0.0639583554553,0.0243868601734
3293.875,0.0627162550049,0.0249506213494
3295.804,0.06148336113,0.0261531105272
3297.732,0.0602609521034,0.0267279344557
3299.661,0.0590477598657,0.0271257915427
3301.589,0.0578450422628,0.0287010540537
3303.518,0.0566515516624,0.0301024848233
3305.447,0.0554679144345,0.0304648457528
3307.375,0.05429473652,0.0301642695609
3309.303,0.0531314017647,0.0305730785596
3311.232,0.0519773144386,0.0305382373892
3313.16,0.0508336711071,0.0313303045691
3315.089,0.0496992854182,0.0328295466221
3317.017,0.0485753335105,0.0337259875212
3318.946,0.0474606494587,0.0339393645204
3320.875,0.0463558187796,0.0338846229622
3322.803,0.0452614065603,0.0320549420803
3324.731,0.0441768375001,0.0319949665119
3326.66,0.0431015567228,0.0341088996972
3328.588,0.0420366790864,0.0358349921235
3330.517,0.0409810999463,0.0358326974956
3332.445,0.0399359137337,0.0346967835473
3334.374,0.0389000362307,0.0333093717514
3336.302,0.037874541442,0.0343925306207
3338.231,0.0368583655761,0.0360786582583
3340.159,0.0358525622112,0.0379288035538
3342.088,0.0348560879826,0.0379869259267
3344.016,0.0338699760414,0.0378959427396
3345.945,0.0328932034499,0.0378773983534
3347.873,0.0319267829325,0.0360892232183
3349.802,0.0309697119783,0.0357451828284
3351.73,0.0300229828847,0.0370620104752
3353.659,0.0290856135676,0.0382590428942
3355.587,0.0281585758978,0.0390417456231
3357.516,0.0272409082179,0.0383818638517
3359.444,0.0263335619719,0.0390735813845
3361.373,0.0254355959292,0.0408522352024
3363.302,0.0245474832591,0.0418109426862
3365.23,0.0236696767015,0.0408323153304
3367.158,0.022801713303,0.0410558389441
3369.087,0.0219431505347,0.0415747078563
3371.015,0.0210948785601,0.0417603671239
3372.944,0.0202560174289,0.0413169887918
3374.872,0.0194274368781,0.0424356371416
3376.801,0.0186082773841,0.0434358269005
3378.729,0.017799388257,0.0427444014962
3380.658,0.0169999304003,0.0437206958666
3382.586,0.016210732697,0.0437193714478
3384.515,0.0154309764774,0.0426203270803
3386.443,0.0146614701979,0.0432154432011
3388.372,0.0139014156155,0.0433810335353
3390.3,0.0131516007598,0.0440155202299
3392.229,0.0124112478146,0.0441358969397
3394.157,0.0116811243827,0.0437284653286
3396.086,0.0109604730747,0.0456230175243
3398.014,0.0102500410666,0.0464858224967
3399.943,0.0095490913957,0.0463382364858
3401.871,0.00885835081138,0.0480973352164
3403.8,0.00817710277771,0.0481170189809
3405.728,0.00750605361718,0.0474792682532
3407.657,0.00684450722069,0.0474303232819
3409.585,0.00619314948396,0.0476671985974
3411.514,0.00555130472466,0.0461985380097
3413.442,0.00491963841171,0.0460138207342
3415.371,0.0042974952896,0.046882696225
3417.299,0.00368552040044,0.0476302690732
3419.228,0.00308307891551,0.0472080373213
3421.156,0.00249079545014,0.0466005584326
3423.085,0.0019080556024,0.0470955789821
3425.013,0.00133546356082,0.0478034195034
3426.942,0.000772425350263,0.0467920535761
3428.87,0.000219524732476,0.0478614845637
3430.799,-0.000323811840897,0.0476502953804
3432.727,-0.000857021034896,0.0476592856606
3434.656,-0.00138065597108,0.0476052313538
3436.584,-0.00189417374129,0.0490497619149
3438.513,-0.00239810704029,0.0489543382558
3440.441,-0.00289193338671,0.0470430482256
3442.37,-0.00337616504853,0.0469279229293
3444.298,-0.00385029997115,0.0485134019492
3446.227,-0.00431482999579,0.0467461573181
3448.155,-0.00476927349462,0.0472949602214
3450.084,-0.00521410188207,0.0491747505156
3452.012,-0.00564885395712,0.0489381529017
3453.941,-0.00607398070738,0.0484783981254
3455.869,-0.00648904135863,0.0485722873221
3457.798,-0.00689446647172,0.0500233544287
3459.726,-0.00728983569918,0.050291862679
3461.655,-0.00767555917507,0.0491622440147
3463.583,-0.00805123697874,0.0505398789023
3465.512,-0.00841725881746,0.0516135962746
3467.44,-0.00877324519734,0.0514303361318
3469.369,-0.00911956539887,0.0502791376362
3471.297,-0.00945586035496,0.04983469589
3473.226,-0.0097824789193,0.0503835832738
3475.154,-0.0100990824516,0.0502727736517
3477.083,-0.0104059993788,0.0498471820166
3479.011,-0.0107029114873,0.0515112570524
3480.94,-0.0109901267772,0.052540416845
3482.868,-0.011267347462,0.0527145411434
3484.797,-0.0115348611147,0.0528793078891
3486.725,-0.0117923903757,0.0523354811704
3488.654,-0.0120402023913,0.0514411949124
3490.582,-0.0122780402284,0.0521200755957
3492.511,-0.0125061506068,0.0534871389342
3494.439,-0.0127242970202,0.0544661017312
3496.368,-0.0129327057614,0.052336843596
3498.296,-0.013131160751,0.0523119813283
3500.225,-0.013319867855,0.0546587229609
3502.153,-0.0134986314208,0.0554148262904
3504.082,-0.0136676368877,0.0525835521739
3506.01,-0.0138267090296,0.0520426173263
3507.939,-0.0139760128593,0.0550863085188
3509.867,-0.0141153935775,0.0578957109047
3511.796,-0.01424499577,0.0586701023612
3513.724,-0.0143646850644,0.0564238169579
3515.653,-0.0144745856197,0.0548069404111
3517.581,-0.0145745834903,0.0536491623678
3519.51,-0.0146647824084,0.0525623150847
3521.438,-0.0147450888552,0.0542974059028
3523.367,-0.0148155861362,0.0544479339379
3525.295,-0.0148762011592,0.0551568330177
3527.224,-0.014926996803,0.05457611961
3529.152,-0.0149679204022,0.0529500270633
3531.081,-0.0149990144088,0.0532184174982
3533.009,-0.0150202465842,0.0553809091969
3534.938,-0.0150316389536,0.0565305555678
3536.866,-0.0150331797052,0.0560110227191
3538.795,-0.0150248704374,0.0542738394736
3540.723,-0.0150067197653,0.0534298692725
3542.652,-0.0149787088603,0.0522873689568
3544.58,-0.0149408667644,0.0512723828055
3546.509,-0.0148931542222,0.0499263547534
3548.437,-0.0148356207025,0.050980165331
3550.366,-0.0147682065231,0.0529827169027
3552.294,-0.0146909815796,0.0540751990955
3554.223,-0.0146038657631,0.0563893553836
3556.151,-0.0145069493958,0.0597645156221
3558.08,-0.0144001319421,0.0632035149015
3560.008,-0.014283524151,0.0684245040909
3561.937,-0.0141570050601,0.0729911421957
3563.865,-0.0140207058452,0.0766306170775
3565.794,-0.0138744851171,0.0754377059181
3567.722,-0.0137184944784,0.0646505557072
3569.651,-0.0135525721132,0.061501478243
3571.579,-0.0133768900507,0.0633653572346
3573.508,-0.0131912660482,0.0607494543477
3575.436,-0.012995892562,0.0570246896543
3577.365,-0.0127905669223,0.0538837380973
3579.293,-0.0125755020123,0.0516588178716
3581.222,-0.0123504747355,0.0518087818578
3583.15,-0.0121157184016,0.0550076594095
3585.079,-0.0118709894876,0.056839885832
3587.007,-0.01161654173,0.0568216860649
3588.936,-0.0113521111788,0.0588739536335
3590.864,-0.0110779719974,0.0716091804967
3592.793,-0.010793839809,0.0878669508735
3594.721,-0.0105000092038,0.104623864659
3596.65,-0.0101961753782,0.122441929205
3598.578,-0.0098826533492,0.128143644472
3600.507,-0.00955911788644,0.110645998434
3602.435,-0.00922590443365,0.0822258345378
3604.364,-0.00888266733372,0.0638005397039
3606.292,-0.00852976245714,0.0530219690693
3608.221,-0.00816682372001,0.0424325677614
3610.149,-0.00779422741964,0.0362526743337
3612.078,-0.00741158704534,0.0349519519017
3614.006,-0.00701929932118,0.0323453634856
3615.935,-0.00661695730969,0.0333308036786
3617.863,-0.00620497816173,0.0314653402223
3619.792,-0.00578293451306,0.022007859375
3621.72,-0.00535126394131,0.0238310290912
3623.649,-0.00490951865545,0.0277284184947
3625.577,-0.00445815665992,0.0308256690664
3627.506,-0.00399670973687,0.0330520672542
3629.434,-0.00352565631755,0.0178724795509
3631.363,-0.00304450775732,0.019721309323
3633.291,-0.0025537629142,0.0254631778859
3635.22,-0.00205291271679,0.0250528428209
3637.148,-0.00154247644988,0.0269363395938
3639.077,-0.00102192461529,0.0260131876334
3641.005,-0.000491796924589,0.0251860025582
3642.934,4.84565471943e-05,0.0210579948402
3644.862,0.00059827566168,0.0235689152239
3646.791,0.00115823077065,0.022074103052
3648.719,0.00172774130893,0.00874091040003
3650.648,0.00230739805508,0.00628769525589
3652.576,0.00289660001715,0.0143966829912
3654.505,0.00349595840049,0.0236778026955
3656.433,0.00410485178634,0.0191882914303
3658.362,0.00472391180687,0.0154302085538
3660.29,0.00535249661652,0.0180650612223
3662.219,0.00599125827422,0.0184653014518
3664.147,0.00663953450766,0.0198950289927
3666.076,0.00729799780255,0.0192949287369
3668.004,0.00796596545979,0.0182390390834
3669.933,0.00864413039186,0.00730575427998
3671.861,0.00933178947288,0.00538757866859
3673.79,0.0100296560421,0.0172961285388
3675.718,0.010737006547,0.00889394333772
3677.647,0.0114545747534,0.00547559928728
3679.575,0.012181616682,0.00935574265259
3681.504,0.0129188865256,0.00902561616536
3683.432,0.013665619878,0.0107133554487
3685.361,0.0144225913588,0.00915363007123
3687.289,0.015189016135,0.00749847949648
3689.218,0.015965689253,-0.0035581265215
3691.146,0.016751805453,-0.00405487388104
3693.075,0.0175481802082,-0.000410764956909
3695.003,0.018353987832,0.00414129419782
3696.932,0.0191700642243,0.00403570917332
3698.86,0.0199955632719,0.00321021012576
