baseline wavenumber (cm-1),baseline absorbance (cm-1),baseline-subtracted absorbance (cm-1)
3199.379,0.236749469322,1.65978342181e-14
3201.308,0.2347790516,0.00186387774411
3203.236,0.232819501061,0.00314016739144
3205.165,0.230868784976,0.00389690793785
3207.093,0.228928925861,0.00372057378496
3209.021,0.226998909905,0.00420451675994
3210.95,0.225077743722,0.00518663513126
3212.878,0.22316741919,0.00624544849383
3214.807,0.221265954645,0.00574127268778
3216.736,0.219374343472,0.00723290407721
3218.664,0.217493558628,0.00733783730867
3220.593,0.215621649092,0.00783963666568
3222.521,0.213760555672,0.0085221694872
3224.449,0.211909305411,0.00963041964683
3226.378,0.210066945777,0.00994103966712
3228.306,0.20823538694,0.0104209357122
3230.235,0.206412728943,0.0109517712084
3232.164,0.204599924319,0.0123936064605
3234.092,0.20279790517,0.0126859723188
3236.021,0.201004802183,0.013030424745
3237.949,0.199222474458,0.013343936135
3239.877,0.197449989893,0.0141876326686
3241.806,0.195686436807,0.0145609098013
3243.734,0.193933643666,0.0150510424761
3245.663,0.192189792217,0.0151366507221
3247.592,0.190455794142,0.0166894095376
3249.52,0.188732540688,0.0167123193137
3251.448,0.187019130394,0.0172774934813
3253.377,0.18531468222,0.016845430991
3255.305,0.18362096335,0.017525048982
3257.234,0.181936216813,0.018108916109
3259.162,0.180262189367,0.0191753422213
3261.091,0.178597144467,0.0196322601624
3263.02,0.17694195294,0.0205597654465
3264.948,0.175297465182,0.0205804788188
3266.876,0.173662820583,0.0222826459084
3268.805,0.172037178958,0.0229986039189
3270.733,0.170422225783,0.0235924815862
3272.662,0.168816285795,0.0227022626739
3274.591,0.167220199179,0.0227140472575
3276.519,0.165634785693,0.0231499610981
3278.448,0.164058400714,0.0249685880656
3280.376,0.162492678651,0.0259235752656
3282.304,0.160936799747,0.0262864894469
3284.233,0.159389964671,0.0261749802395
3286.161,0.157853777191,0.0274077208379
3288.09,0.156326643752,0.0272444671347
3290.019,0.154809363685,0.0277594728659
3291.947,0.153302715893,0.0282223017958
3293.875,0.151805911261,0.0294516951273
3295.804,0.150318181096,0.0300407595689
3297.732,0.148841067887,0.0307874067916
3299.661,0.14737303936,0.0314433459631
3301.589,0.145915617575,0.0324998276894
3303.518,0.144467290684,0.032859152255
3305.447,0.143028817167,0.0335846974397
3307.375,0.14160093507,0.0332140351109
3309.303,0.140182896133,0.0331654309672
3311.232,0.138773972517,0.0337883948138
3313.16,0.137375625003,0.0347936360906
3315.089,0.135986403024,0.0353004159387
3317.017,0.134607746934,0.0361350004627
3318.946,0.133238226593,0.0367206332071
3320.875,0.131878559624,0.0377120600064
3322.803,0.130529443222,0.037272436895
3324.731,0.12919016998,0.0376229807325
3326.66,0.127860052913,0.0375181943328
3328.588,0.126540471094,0.0378835661036
3330.517,0.125230055664,0.0382595834746
3332.445,0.12393016527,0.0393194556745
3334.374,0.122639451477,0.0391745078886
3336.302,0.121359252506,0.0390564960032
3338.231,0.12008824035,0.0393422660686
3340.159,0.118827732803,0.0403966177478
3342.088,0.117576422284,0.0405814165915
3344.016,0.116335606161,0.0411692457543
3345.945,0.11510399728,0.0418533462965
3347.873,0.11388287258,0.0434339170689
3349.802,0.112670965336,0.0439474011857
3351.73,0.111469532061,0.044292774621
3353.659,0.110277326453,0.0434370675625
3355.587,0.109095584602,0.043716150969
3357.516,0.107923080632,0.0447860571425
3359.444,0.106761030204,0.0452678285854
3361.373,0.105608227871,0.0446338119552
3363.302,0.104465278911,0.0456522284175
3365.23,0.103332768171,0.0453669690167
3367.158,0.102210100591,0.046103252285
3369.087,0.101096701532,0.0468748440048
3371.015,0.0999937253758,0.0478815399634
3372.944,0.0989000279546,0.0476579423274
3374.872,0.0978167432217,0.0481023409792
3376.801,0.0967427474378,0.0479757403819
3378.729,0.0956791541287,0.0488963538062
3380.658,0.0946248599819,0.0494490306478
3382.586,0.0935809580966,0.0493895766249
3384.515,0.092546365587,0.0485024568126
3386.443,0.0915221551255,0.0502948366869
3388.372,0.0905072642531,0.0513202905836
3390.3,0.0895027452154,0.0519345842094
3392.229,0.0885075559802,0.0502715807832
3394.157,0.0875227283663,0.0513715908493
3396.086,0.0865472407682,0.0523941824603
3398.014,0.0855821045781,0.0529890568492
3399.943,0.0846263186172,0.0544979611766
3401.871,0.0836808738509,0.0559963726871
3403.8,0.0827447895272,0.0562968560808
3405.728,0.0818190361847,0.057509731631
3407.657,0.0809026534982,0.0581056857316
3409.585,0.0799965915794,0.0589056625396
3411.514,0.0790999105301,0.0588282204716
3413.442,0.0782135400352,0.059063524556
3415.371,0.077336560623,0.0587502179072
3417.299,0.0764698815519,0.0595294614179
3419.228,0.0756126037769,0.0585479643015
3421.156,0.0747656161295,0.0580176144375
3423.085,0.0739280399918,0.0604271101143
3425.013,0.0731007437682,0.0630842860509
3426.942,0.0722828692676,0.0637317875604
3428.87,0.0714752644678,0.0648278286283
3430.799,0.0706770916045,0.0644504227997
3432.727,0.0698891782284,0.0662116000997
3434.656,0.0691107070023,0.0677224578618
3436.584,0.06834248505,0.0685613358334
3438.513,0.067583715461,0.06874732669
3440.441,0.0668351849326,0.0691182670031
3442.37,0.0660961169808,0.0672710618325
3444.298,0.0653672778761,0.0683091094685
3446.227,0.0646479115615,0.0659869817975
3448.155,0.0639387638806,0.0656944616324
3450.084,0.0632390992032,0.0695379148472
3452.012,0.0625496429461,0.0710069627347
3453.941,0.0618696799058,0.0708786775186
3455.869,0.0611999150726,0.0714543354076
3457.798,0.0605396536695,0.0720363091325
3459.726,0.05988958026,0.0725934380358
3461.655,0.0592490204941,0.0709442980139
3463.583,0.0586186385084,0.0710154967387
3465.512,0.0579977803797,0.0720314827356
3467.44,0.0573870898178,0.0729746811314
3469.369,0.0567859333263,0.073742167351
3471.297,0.0561949341882,0.0744851931746
3473.226,0.0556134793338,0.0737106892703
3475.154,0.0550421716195,0.0724913369219
3477.083,0.0544804184023,0.0730018923224
3479.011,0.0539288021118,0.0732611807043
3480.94,0.0533867505318,0.0700602321832
3482.868,0.0528548256651,0.0699197624275
3484.797,0.0523324757223,0.0722394438168
3486.725,0.0518202422793,0.072393595788
3488.654,0.0513175939737,0.0717143983441
3490.582,0.0508250519546,0.0730324735685
3492.511,0.0503421052862,0.0731091733957
3494.439,0.0498692546908,0.0725070214641
3496.368,0.0494060096596,0.0705455722671
3498.296,0.048952850488,0.0711204336523
3500.225,0.0485093070939,0.0697525447205
3502.153,0.0480758393461,0.0650779562669
3504.082,0.0476519975893,0.0632327188769
3506.01,0.0472382212653,0.0690830159732
3507.939,0.0468340811456,0.0699731057542
3509.867,0.0464399962454,0.0690787543864
3511.796,0.0460555577629,0.0718081842769
3513.724,0.0456811642865,0.0721187447401
3515.653,0.0453164274412,0.0701353061078
3517.581,0.0449617253885,0.0685978621986
3519.51,0.0446166901804,0.0672569578535
3521.438,0.0442816795516,0.0644652627308
3523.367,0.0439563459806,0.0582517809778
3525.295,0.0436410267756,0.0590571941887
3527.224,0.0433353948418,0.0581343312271
3529.152,0.0430397670606,0.0583048200212
3531.081,0.042753836764,0.0619895676634
3533.009,0.0424779004066,0.0673605206993
3534.938,0.0422116717472,0.067238596119
3536.866,0.0419554268135,0.0641153808283
3538.795,0.0417088997913,0.0647166536303
3540.723,0.0414723462814,0.0644652863882
3542.652,0.0412455208964,0.0592295624959
3544.58,0.0410286588103,0.0525460910128
3546.509,0.0408215350625,0.05173325115
3548.437,0.0406243644002,0.0590909898907
3550.366,0.0404369422895,0.0615037228272
3552.294,0.040259463051,0.0567802114663
3554.223,0.0400917425775,0.0610208622946
3556.151,0.0399339547628,0.0701218928062
3558.08,0.0397859359265,0.0749416492347
3560.008,0.0396478395356,0.0772471367102
3561.937,0.0395195223365,0.0777237810093
3563.865,0.0394011173694,0.0739877939821
3565.794,0.0392925018075,0.0569023329242
3567.722,0.0391937882641,0.0469255890734
3569.651,0.0391048743394,0.0602724126312
3571.579,0.0390258522198,0.0660381829565
3573.508,0.0389566399323,0.0620665582887
3575.436,0.0388973092365,0.0583761669588
3577.365,0.0388477985862,0.0591425986644
3579.293,0.0388081593142,0.0606118346209
3581.222,0.038778350301,0.0604378631832
3583.15,0.0387584024528,0.0583606716399
3585.079,0.0387482950769,0.0526004868902
3587.007,0.0387480386525,0.040690806996
3588.936,0.0387576329137,0.0550587018685
3590.864,0.0387770679131,0.0793184036325
3592.793,0.0388063638114,0.0868630994454
3594.721,0.0388454902346,0.094771258982
3596.65,0.0388944877702,0.113964048569
3598.578,0.0389533056172,0.122349534775
3600.507,0.0390220047899,0.106719529628
3602.435,0.0391005140607,0.0825686459514
3604.364,0.0391889148706,0.0646832674805
3606.292,0.0392871155652,0.0484943460744
3608.221,0.0393952180123,0.0359204091988
3610.149,0.0395131101307,0.0380709391971
3612.078,0.039640914215,0.0309199874327
3614.006,0.0397784977571,0.0180799880409
3615.935,0.0399260034786,0.0198778982701
3617.863,0.0400832784445,0.014576329359
3619.792,0.0402504858032,0.0105498275497
3621.72,0.0404274521929,0.0260364111448
3623.649,0.0406143611888,0.0335658672556
3625.577,0.0408110190023,0.0279176275154
3627.506,0.0410176296353,0.0107715647445
3629.434,0.0412339788726,-0.00915129414607
3631.363,0.0414602911429,0.0160125684548
3633.291,0.041696331804,0.024713756137
3635.22,0.0419423457114,0.0250262179195
3637.148,0.0421980777963,0.0295000420865
3639.077,0.0424637933409,0.0324569081653
3641.005,0.0427392168495,0.0349104849598
3642.934,0.0430246340313,0.0318948039551
3644.862,0.0433197489638,0.0273659884263
3646.791,0.0436248677827,0.00106562044125
3648.719,0.043939674139,-0.0297123416817
3650.648,0.0442644945952,-0.0224351708309
3652.576,0.0445989923752,0.012776727831
3654.505,0.0449435144685,0.0223837876643
3656.433,0.0452977036724,0.0131253227099
3658.362,0.0456619274029,0.0214947995758
3660.29,0.0460358080305,0.0307692056155
3662.219,0.0464197333982,0.0324737771648
3664.147,0.0468133054497,0.0317026148981
3666.076,0.0472169324545,0.0266423619961
3668.004,0.0476301959298,0.0155380038074
3669.933,0.0480535245718,-0.00389796003125
3671.861,0.0484864794708,0.00653075493734
3673.79,0.0489295097501,0.00350903265363
3675.718,0.0493821560729,-0.0353248933619
3677.647,0.0498448879893,-0.0167400663983
3679.575,0.0503172257359,0.00340292992972
3681.504,0.0507996592895,0.0180385091124
3683.432,0.0512916884599,0.021794230877
3685.361,0.0517938236507,0.01506804838
3687.289,0.0523055442449,0.000500126431355
3689.218,0.0528273810729,-0.0249480724708
3691.146,0.0533587930908,-0.0172906641107
3693.075,0.053900331556,0.00215268572893
3695.003,0.0544514349978,0.00963630380746
3696.932,0.0550126751001,0.00712949613205
3698.86,0.0555834699657,0.00655870126652
