baseline wavenumber (cm-1),baseline absorbance (cm-1),baseline-subtracted absorbance (cm-1)
3199.379,0.104335388659,1.07691633389e-14
3201.308,0.103126765538,0.00296693707958
3203.236,0.101925801624,0.00535611488279
3205.165,0.100731251102,0.00774241714866
3207.093,0.0995443524897,0.00569217839071
3209.021,0.0983644847058,0.00361115463513
3210.95,0.0971910412563,0.00526069229268
3212.878,0.0960252387751,0.00720937155543
3214.807,0.0948658679236,0.00733619414051
3216.736,0.0937135351953,0.00600596344006
3218.664,0.0925688324916,0.00557278279198
3220.593,0.0914305723613,0.00677977839175
3222.521,0.0902999349602,0.00693144075997
3224.449,0.0891763283872,0.00566750058281
3226.378,0.0880591753296,0.00192313539515
3228.306,0.0869496340592,-0.00137902858062
3230.235,0.0858465535997,0.00184979735555
3232.164,0.0847505112634,0.00425332983638
3234.092,0.0836620697704,0.00390843462661
3236.021,0.0825801000321,0.00364045995978
3237.949,0.0815057238419,0.00521316830407
3239.877,0.0804383784797,0.00826171249375
3241.806,0.0793775158141,0.00412950935526
3243.734,0.0783242357545,0.000497658514149
3245.663,0.0772774456869,0.000961713314407
3247.592,0.0762376937426,0.0046366618624
3249.52,0.0752055134605,0.0051305827692
3251.448,0.0741803640063,0.00396478913224
3253.377,0.0731617191347,0.00555606111396
3255.305,0.0721506349833,0.00467995230064
3257.234,0.0711460627096,0.00350672208768
3259.162,0.070149043861,0.00515420085754
3261.091,0.0691585441853,0.00432017814363
3263.02,0.0681750826329,0.00463397427601
3264.948,0.0671991635616,0.00534000554784
3266.876,0.0662302753183,0.00588283496165
3268.805,0.0652679208387,0.0100575618258
3270.733,0.0643130978981,0.0106631479323
3272.662,0.0633648160164,0.00550559740724
3274.591,0.062423572258,0.00211397954632
3276.519,0.0614898490948,0.00371686272162
3278.448,0.0605626779344,0.00737273094056
3280.376,0.0596430200739,0.00787947057601
3282.304,0.0587303930415,0.00785860928339
3284.233,0.0578243289538,0.00697249708485
3286.161,0.056925767224,0.00509839127189
3288.09,0.0560337757343,0.00394044846465
3290.019,0.0551488223678,0.00723417571162
3291.947,0.0542713604155,0.00539355417058
3293.875,0.0534009292912,0.00734050404554
3295.804,0.0525370829974,0.00975544707437
3297.732,0.0516807171758,0.00962727837663
3299.661,0.05083094348,0.00995344952515
3301.589,0.0499886429611,0.00791593603415
3303.518,0.0491529418633,0.00454765451797
3305.447,0.0483242788888,0.0041916414589
3307.375,0.0475030781473,0.00727808024751
3309.303,0.0466889082338,0.00860220669593
3311.232,0.045881352332,0.00582237757803
3313.16,0.0450812477212,0.00535289763408
3315.089,0.0442877644174,0.00646276626085
3317.017,0.0435017251093,0.00644419624922
3318.946,0.0427223144035,0.00689964051412
3320.875,0.041949941821,0.00773114581677
3322.803,0.0411850022903,0.00578709919562
3324.731,0.0404270935876,0.00728745205072
3326.66,0.0396758280778,0.0102685770572
3328.588,0.0389319846778,0.0105125720795
3330.517,0.0381947917659,0.00953693773977
3332.445,0.0374650136687,0.0104041867761
3334.374,0.0367418933548,0.00783861811794
3336.302,0.0360261805603,0.0081565749234
3338.231,0.0353171328444,0.0114649352846
3340.159,0.0346154853526,0.0109763472564
3342.088,0.0339205102347,0.00775542224284
3344.016,0.0332329280455,0.0100279634939
3345.945,0.0325520255256,0.0138621056783
3347.873,0.0318785086392,0.0157799367262
3349.802,0.0312116787173,0.0148658508491
3351.73,0.0305522271336,0.0145731140167
3353.659,0.0298994698097,0.0151667386205
3355.587,0.0292540835286,0.0165277824372
3357.516,0.0286153988027,0.0158180389816
3359.444,0.0279840778244,0.0147663517723
3361.373,0.0273594656965,0.01315958818
3363.302,0.0267418916918,0.0129098822898
3365.23,0.0261316704909,0.0158085902995
3367.158,0.025528480118,0.0156688311121
3369.087,0.0249320131861,0.0148552101031
3371.015,0.0243428881159,0.0200182763438
3372.944,0.0237604937819,0.0194215541308
3374.872,0.0231854340144,0.0156915497114
3376.801,0.0226171122784,0.014773466919
3378.729,0.0220561178137,0.0180985369927
3380.658,0.0215018686757,0.0186093210544
3382.586,0.0209549395136,0.0202176067312
3384.515,0.0204147629736,0.0206374961995
3386.443,0.0198818991143,0.0184558144206
3388.372,0.0193557951722,0.015591137002
3390.3,0.0188369966156,0.0170398860287
3392.229,0.0183249652716,0.0178890244181
3394.157,0.0178202320176,0.0202809506368
3396.086,0.0173222732716,0.019275320987
3398.014,0.0168316053204,0.0214171564304
3399.943,0.0163477191723,0.0233010223621
3401.871,0.0158711165238,0.025175077755
3403.8,0.0154013029737,0.0260815636997
3405.728,0.0149387656279,0.0243167685882
3407.657,0.0144830246758,0.0245516463036
3409.585,0.0140345526327,0.0288341424042
3411.514,0.0135928842786,0.0280512075034
3413.442,0.0131584775383,0.0262476682214
3415.371,0.0127308817822,0.0275430492802
3417.299,0.0123105403445,0.0279108283
3419.228,0.0118970171864,0.0256841007758
3421.156,0.0114907410514,0.0245994237116
3423.085,0.0110912904913,0.0204112870889
3425.013,0.010699079659,0.0211613266889
3426.942,0.0103137016969,0.0243517182971
3428.87,0.00993555616729,0.0279841850639
3430.799,0.00956425080314,0.0313768186399
3432.727,0.00920017057629,0.0347359458697
3434.656,0.00884293781013,0.0326166801015
3436.584,0.00849292288598,0.0290416975527
3438.513,0.00814976271782,0.0278787422857
3440.441,0.00781381309638,0.0289131655754
3442.37,0.0074847255262,0.0273934711785
3444.298,0.00716284120747,0.0255365421949
3446.227,0.00684782623528,0.0248837011073
3448.155,0.00654000721925,0.0289689384999
3450.084,0.00623906484505,0.0321168433729
3452.012,0.00594531113174,0.0310803635878
3453.941,0.00565844135553,0.0307981441089
3455.869,0.00537875294492,0.0334052357339
3457.798,0.0051059557667,0.03584370561
3459.726,0.00484033265879,0.0347472545241
3461.655,0.00458160807856,0.0307388205073
3463.583,0.00433005027337,0.0300230276605
3465.512,0.00408539829112,0.0328427327106
3467.44,0.00384790578864,0.0340192730247
3469.369,0.00361732640438,0.0328913160701
3471.297,0.0033938992046,0.0368906454229
3473.226,0.00317739241834,0.039313762944
3475.154,0.00296803052127,0.0388827730772
3477.083,0.00276559633299,0.0437683165347
3479.011,0.00257029973863,0.0444745804797
3480.94,0.00238193814834,0.0395381063276
3482.868,0.00220070685668,0.0395545746555
3484.797,0.00202641786439,0.0439277921831
3486.725,0.00185925187544,0.0449501082782
3488.654,0.00169903548113,0.0417326839164
3490.582,0.00154593479489,0.0440822871802
3492.511,0.00139979099857,0.0480664982969
3494.439,0.00126075561503,0.0489767860811
3496.368,0.0011286844167,0.0473616622931
3498.296,0.00100371433587,0.0499065252275
3500.225,0.000885715735535,0.050779097769
3502.153,0.000774810957415,0.0475937324571
3504.082,0.000670884955063,0.0480281952026
3506.01,0.000574045479651,0.0558795075376
3507.939,0.000484192075287,0.0603552903871
3509.867,0.000401417902584,0.0601095494481
3511.796,0.000325637096211,0.0609798314169
3513.724,0.000256928226211,0.0619643393367
3515.653,0.000195220017829,0.0621089344348
3517.581,0.000140576450537,0.0659293719979
3519.51,9.29408401422e-05,0.0701865497087
3521.438,5.23625755608e-05,0.0727415320974
3523.367,1.87995631542e-05,0.0769851426182
3525.295,-7.71339871974e-06,0.0780436984386
3527.224,-2.72038131364e-05,0.0737374029438
3529.152,-3.96514723047e-05,0.0745413193183
3531.081,-4.50692887313e-05,0.0739923047077
3533.009,-4.34516451921e-05,0.0692641127187
3534.938,-3.47968636305e-05,0.0643257096302
3536.866,-1.91139173822e-05,0.063428089961
3538.795,3.61346216771e-06,0.0647411555664
3540.723,3.33617111234e-05,0.0695658498526
3542.652,7.01616886634e-05,0.0690433529176
3544.58,0.000113975240327,0.0586139131656
3546.509,0.000164847815855,0.0523192318364
3548.437,0.000222726670225,0.0567069205551
3550.366,0.000287671843743,0.0587828830941
3552.294,0.000359616000821,0.0576551419088
3554.223,0.000438633772328,0.0645477202153
3556.151,0.000524643232113,0.0746780253214
3558.08,0.00061773360161,0.0847153301809
3560.008,0.000717808364103,0.0956644821443
3561.937,0.000824971331587,0.107544582899
3563.865,0.000939111396789,0.111016817037
3565.794,0.00106034696226,0.10000859067
3567.722,0.00118855233017,0.093803361144
3569.651,0.00132386049363,0.110791776826
3571.579,0.00146613116425,0.126345958192
3573.508,0.0016155119257,0.123216187256
3575.436,0.00177184789903,0.10338685017
3577.365,0.00193530125847,0.0846051819115
3579.293,0.0021057025345,0.0742179606617
3581.222,0.00228322849193,0.0673569211088
3583.15,0.00246769507067,0.059992630412
3585.079,0.00265929362609,0.0532656027653
3587.007,0.00285782550753,0.0465998718542
3588.936,0.00306349666094,0.0533036316116
3590.864,0.00327609384509,0.0715465079946
3592.793,0.00349583759649,0.0912408449063
3594.721,0.00372250008335,0.112006803465
3596.65,0.00395631643274,0.1304609483
3598.578,0.00419704422231,0.131536302589
3600.507,0.00444493316968,0.106518374219
3602.435,0.00469972626196,0.0757935518134
3604.364,0.00496168780732,0.0556710828386
3606.292,0.00523054620231,0.0417142632589
3608.221,0.00550658034566,0.0283951683655
3610.149,0.00578950404335,0.0206226055291
3612.078,0.0060796107847,0.0195632680185
3614.006,0.0063765997851,0.0167771452872
3615.935,0.00668077912443,0.0153939201579
3617.863,0.00699183342753,0.00819011340356
3619.792,0.00731008536486,0.00132025932331
3621.72,0.00763520497067,0.0142772583873
3623.649,0.00796752950598,0.0238175710702
3625.577,0.0083067144145,0.0249369932576
3627.506,0.0086531115478,0.021425732079
3629.434,0.00900636175903,0.000378051462439
3631.363,0.00936683149032,0.00774627878968
3633.291,0.00973414700426,0.0130870396934
3635.22,0.0101086893335,0.0114843562543
3637.148,0.0104900701502,0.0198591666839
3639.077,0.0108786850774,0.0230609692236
3641.005,0.0112741311968,0.0227383018367
3642.934,0.0116768187221,0.0188462784173
3644.862,0.0120863301441,0.0143318443227
3646.791,0.0125030902674,0.00223864631407
3648.719,0.0129266669921,-0.00832998246771
3650.648,0.0133574997134,-0.0129976493141
3652.576,0.0137951417408,0.00384207649429
3654.505,0.0142400470601,0.0161364817987
3656.433,0.0146917543902,0.0104442003252
3658.362,0.0151507323074,0.0127498034249
3660.29,0.0156165049403,0.0201400906323
3662.219,0.0160895554555,0.0193632899907
3664.147,0.0165693933911,0.0180869292612
3666.076,0.0170565165043,0.0145173235846
3668.004,0.0175504197426,0.00727521454424
3669.933,0.0180516154538,-0.00409831514046
3671.861,0.0185595839948,-0.00270645552014
3673.79,0.019074852304,0.000647678778595
3675.718,0.0195968861477,-0.0195968861477
3677.647,0.0201262270549,-0.0118329894121
3679.575,0.0206623262013,-0.00171357455872
3681.504,0.0212057397064,0.00173623947076
3683.432,0.0217559041556,0.00647516831991
3685.361,0.0223133902587,0.00671622664213
3687.289,0.0228776200106,-0.000712452720551
3689.218,0.0234491787117,-0.0188373319513
3691.146,0.0240274737662,-0.0122186190204
3693.075,0.0246131050653,0.00118341772855
3695.003,0.0252054654226,0.00808878303591
3696.932,0.0258051693197,0.0108055655433
3698.86,0.0264115949797,0.0101991398834
