baseline wavenumber (cm-1),baseline absorbance (cm-1),baseline-subtracted absorbance (cm-1)
3199.3790000000004,0.12550187000907798,1.9539925233402755e-14
3201.308,0.12399358356656265,0.0004676516502577499
3203.236,0.1224959247366364,-0.0005753748528798397
3205.165,0.12100733993130319,-0.0004857590155040725
3207.093,0.11952937252516804,0.0005530089566874175
3209.0209999999997,0.11806124827824149,0.0012352239748669724
3210.95,0.11660221337467291,0.0006832409869970135
3212.8779999999997,0.11515378055153747,-0.001117087940600836
3214.8070000000002,0.11371444728515812,-0.0004980316377305449
3216.736,0.11228496739137839,0.0021661596681576967
3218.664,0.11086607425661299,0.004373489070992331
3220.593,0.10945629600002249,0.0047921625059910156
3222.5209999999997,0.1080570942890482,0.0028122072372833706
3224.449,0.1066677357372825,0.002396248898318465
3226.3779999999997,0.10528750738245662,0.0010538450889878703
3228.3059999999996,0.10391784025448558,0.0012823012597165118
3230.235,0.10255731353684183,0.0033685936702743113
3232.164,0.10120664019180126,0.004893632728445674
3234.092,0.09986651275220026,0.0092803587731205
3236.0209999999997,0.09853554104434536,0.012049215854471829
3237.949,0.09721510502853548,0.008719899520134966
3239.877,0.09590451217193419,0.004181912572834623
3241.8059999999996,0.09460309036584391,0.006952049632134472
3243.7340000000004,0.09331218893303017,0.010776560687914216
3245.663,0.09203046876412913,0.011906658497571332
3247.592,0.0907586019678277,0.011868002702140501
3249.52,0.08949724022338756,0.01147566991509441
3251.448,0.08824572163815958,0.014466802368713783
3253.377,0.08700340474362278,0.016584485683952543
3255.305,0.0857715775821859,0.0190237322328346
3257.2340000000004,0.08454896232483478,0.019158204358678876
3259.1620000000003,0.08333682658718544,0.01802069893591174
3261.091,0.08213391296702,0.017981320026005054
3263.02,0.08094085271946128,0.018398073794235525
3264.948,0.07975825667018555,0.018882196175260546
3266.8759999999997,0.07858550378011486,0.019497989599042143
3268.805,0.07742199343432077,0.01722876973155385
3270.7329999999997,0.07626893196804474,0.01845157748308246
3272.6620000000003,0.07512512325942922,0.02252018150151258
3274.591,0.07399116792342397,0.024780690966700547
3276.5190000000002,0.072867646145518,0.023087069309854602
3278.448,0.07175339244669487,0.02409266031788615
3280.3759999999997,0.07064956209258,0.02751883980775327
3282.304,0.06955557489767727,0.028454128933314227
3284.2329999999997,0.06847087110061878,0.027822973031595755
3286.1609999999996,0.0673965753295036,0.026873615714669175
3288.09,0.06633157316963079,0.027105200306564825
3290.0190000000002,0.06527642438236114,0.027031267925330837
3291.947,0.06423166829961957,0.027258274083883816
3293.875,0.0631967553760866,0.029464722436507884
3295.804,0.06217115649058513,0.02898319507112479
3297.732,0.06115593499083971,0.025074227750492728
3299.6609999999996,0.06015003774252392,0.022971361226444387
3301.5890000000004,0.0591545076665696,0.027392545805582813
3303.518,0.05816831205543593,0.03063791456945042
3305.447,0.057191969816908994,0.031458591185820506
3307.375,0.056225979429324724,0.033899867128847294
3309.303,0.05526983220095616,0.036270145561097866
3311.232,0.054323039864193845,0.03491278344521609
3313.16,0.05338658405960928,0.03446846496495404
3315.0890000000004,0.05245949336003264,0.03662470759013381
3317.0170000000003,0.051542728979242725,0.03634567696435376
3318.946,0.05063533991684821,0.0328706744367353
3320.875,0.04973780422705687,0.03270938065114004
3322.803,0.048850579534637006,0.032962318474056396
3324.7309999999998,0.047973198001429296,0.03382099991629017
3326.66,0.047105212213406134,0.03533944562547031
3328.5879999999997,0.04624752210398597,0.037887725040459674
3330.5170000000003,0.04539923795314493,0.03691401384105264
3332.445,0.044561239267519426,0.038875534208675955
3334.3740000000003,0.04373265675386406,0.04181924863378361
3336.302,0.042914349492026105,0.04313235019462125
3338.2309999999998,0.042105468615552866,0.04228804194747182
3340.159,0.04130685277750956,0.044529597237652485
3342.0879999999997,0.040517673538222,0.04620020779201184
3344.0159999999996,0.039738749123966244,0.045104069030283966
3345.945,0.03896927152186436,0.04339502646661231
3347.873,0.038210038531399704,0.040924197797317596
3349.802,0.03746026256647994,0.04188624506517913
3351.73,0.03672072099980639,0.04595086497007106
3353.659,0.0359906466720723,0.04746583771082458
3355.587,0.03527079652918985,0.04412827352034032
3357.5159999999996,0.034560423838644994,0.04429887061197668
3359.4440000000004,0.03386026511955009,0.047491700917041246
3361.373,0.03316959406618736,0.04842244070587354
3363.302,0.0324887763854278,0.0443933625006534
3365.23,0.0318181573547065,0.03748185275345062
3367.158,0.031157381483193802,0.03935611290677876
3369.087,0.030506113704198867,0.04617588366768022
3371.015,0.029865029256480824,0.04696757965891418
3372.9440000000004,0.029233463114671565,0.0471958303251343
3374.8720000000003,0.02861207009074107,0.04972463262835314
3376.801,0.028000205586113935,0.05334872800329338
3378.7290000000003,0.027398503985974543,0.053370726783256384
3380.658,0.026806341118533084,0.0520741804623821
3382.586,0.026224330942184793,0.05167873182947247
3384.515,0.02565186971192901,0.051004351858878305
3386.4429999999998,0.02508955095937182,0.05261185407449087
3388.3720000000003,0.024536791366301713,0.05442661710433461
3390.3,0.023994164037532073,0.05244018348091517
3392.2290000000003,0.023461106081647642,0.05292168983465695
3394.157,0.022938170176669104,0.05603837889843444
3396.086,0.02242481385797035,0.055974054028414155
3398.014,0.02192156937677936,0.05482309857025358
3399.9429999999998,0.02142791469526628,0.058487682191421086
3401.8709999999996,0.020944361637869946,0.05827427780415961
3403.8,0.02047040859353899,0.05690753540727034
3405.728,0.020006546959930205,0.06329730424799473
3407.657,0.019552295552784926,0.06622704337372864
3409.585,0.019108125342970794,0.0632420212253102
3411.514,0.01867357557300764,0.0601265861575091
3413.442,0.018249096786981056,0.06261060198993196
3415.3709999999996,0.017834248654203577,0.06390738684564479
3417.2990000000004,0.01742946129197165,0.061247886327556955
3419.228,0.017034314796376293,0.06306019647421923
3421.156,0.016649218857935466,0.0603810045323403
3423.085,0.016273773999525787,0.06090857715785836
3425.013,0.01590836948487251,0.061857222347736496
3426.942,0.015552626263648506,0.06283158479467588
3428.87,0.01520691317278633,0.06538744647545025
3430.7990000000004,0.014870871588748003,0.06550666808576944
3432.7270000000003,0.014544849921676928,0.06698552509095812
3434.656,0.014228509974820724,0.07178281116133611
3436.5840000000003,0.013922179731540751,0.0736493354812362
3438.513,0.013625541421873777,0.06917239651404072
3440.441,0.013338902602381353,0.07018934969722501
3442.37,0.013061965929896502,0.07073870120848413
3444.298,0.012795018534198732,0.0756933065441392
3446.2270000000003,0.012537783498896005,0.07549365287025411
3448.155,0.012290527526985784,0.06700190146320928
3450.0840000000003,0.012052994128872285,0.07003636198150787
3452.012,0.011825429580753166,0.07333377389645346
3453.941,0.011607597819821791,0.07444112349828202
3455.869,0.011399724695497326,0.07561179860380518
3457.798,0.011201594571748075,0.07534091022962652
3459.7259999999997,0.011013412871211159,0.07438434311787168
3461.655,0.010834984384651136,0.07221262503615122
3463.583,0.01066649410790177,0.0721309384201474
3465.512,0.010507767258527423,0.07517857662098404
3467.44,0.010358968405569158,0.07491142480174906
3469.369,0.010219943193376935,0.07383595491639738
3471.297,0.010090835764213324,0.07006887312085697
3473.2259999999997,0.009971512189206777,0.0712116476207596
3475.1540000000005,0.009862096183830715,0.07496000024798999
3477.083,0.009762474246006292,0.07776405966686095
3479.011,0.009672749664421332,0.07725740296875427
3480.94,0.009592829363782585,0.07162874144386011
3482.868,0.009522796205988726,0.07267774963450435
3484.797,0.009462577542539208,0.07671300114946522
3486.725,0.009412235808532898,0.07487513910302068
3488.6540000000005,0.009371718782265503,0.07144350410260181
3490.5820000000003,0.009341068472053848,0.07354683206367874
3492.511,0.00932025308297213,0.07245322311231694
3494.4390000000003,0.009309294196548024,0.07262085843662636
3496.368,0.009308180444648428,0.07208623985253126
3498.296,0.009316912982018977,0.07241461436054664
3500.225,0.009335500867301505,0.07359384311329054
3502.153,0.009363924828463155,0.0657007673781469
3504.0820000000003,0.009402214350934912,0.06235205634551688
3506.01,0.009450329735884111,0.06885857555068231
3507.9390000000003,0.009508320895537992,0.07122553132320286
3509.867,0.009576127704278292,0.07198912045098282
3511.796,0.009653820501117849,0.07603403960198518
3513.724,0.009741318733649251,0.07836491799939438
3515.653,0.009838713167670932,0.07801734667262084
3517.5809999999997,0.009945902823993436,0.07592087166301775
3519.51,0.010062998895204345,0.07235487232687188
3521.438,0.010189879975314398,0.07112721291865087
3523.367,0.01032667768370743,0.06346893537603204
3525.295,0.010473250187612138,0.06011757160557485
3527.224,0.010629749533190846,0.05525420882120047
3529.152,0.010796013460883103,0.05305014038527078
3531.0809999999997,0.010972214443647488,0.06260152456373103
3533.009,0.011158169795130846,0.07039292693993415
3534.938,0.011354072415080907,0.07091066022415937
3536.866,0.011559719190355366,0.06456178086018571
3538.795,0.011775323447487551,0.06571330487556892
3540.723,0.012000661646553112,0.06736858933899237
3542.652,0.01223596754086742,0.06587279623149689
3544.58,0.012480997163724084,0.05949868544013759
3546.509,0.01273600469522762,0.05431696204893477
3548.437,0.013000725741871832,0.05694014153802307
3550.366,0.013275434910557493,0.06042061279994515
3552.2940000000003,0.01355984738099636,0.05373571513795605
3554.223,0.013854258186867696,0.056956921435086905
3556.151,0.014158362081094111,0.06864614615705422
3558.08,0.014472474524151124,0.07868834625821997
3560.008,0.014796269842168641,0.0849338423583772
3561.937,0.015130083922407778,0.08714324065052237
3563.865,0.015473570664216396,0.08549125294843929
3565.7940000000003,0.01582708638164476,0.074455436614413
3567.722,0.01619026454724448,0.056314031419600674
3569.651,0.01656348190185497,0.06329399308045547
3571.579,0.01694635149124224,0.07048213329598063
3573.508,0.017339270483038405,0.06772491631570787
3575.4359999999997,0.01774183149622033,0.06088901859980744
3577.365,0.018154452125198617,0.06111978218188696
3579.2929999999997,0.01857670456216809,0.06360160333230258
3581.222,0.019009026828335607,0.060687223045312155
3583.15,0.01945097068909618,0.061912114320506806
3585.079,0.019902994592445822,0.06449152678630687
3587.007,0.020364629876997498,0.04564466962770242
3588.9359999999997,0.020836355417529262,0.04801535791513034
3590.864,0.02131768212587204,0.08095564244705811
3592.7929999999997,0.02180910930358948,0.09696679284944798
3594.7209999999995,0.02231012743572336,0.10754583132299489
3596.65,0.022821256250626476,0.12513942301754266
3598.578,0.023341965806551457,0.13350732156835976
3600.507,0.023872796258636697,0.11806594830822847
3602.435,0.02441319723835278,0.08866271502284162
3604.364,0.024963729327623696,0.06724136518364654
3606.292,0.02552382173113088,0.05398290019346197
3608.2209999999995,0.026094055457587473,0.042009654236135674
3610.1490000000003,0.02667383928488576,0.036236804604732775
3612.078,0.027263774648528027,0.024923630587497136
3614.006,0.027863249899613862,0.009645089330144963
3615.935,0.028472886900438255,0.0179235550281982
3617.863,0.029092053575318744,0.01814083836848024
3619.792,0.029721392213328812,0.009012561086985116
3621.72,0.03036025031199685,0.02305125277099096
3623.6490000000003,0.031009290587192595,0.035631263339825914
3625.577,0.031667840109651735,0.036605181218559935
3627.506,0.0323365820220296,0.028238066719504573
3629.434,0.033014822968279844,-0.011258530640371411
3631.363,0.03370326651784339,0.010444110415342323
3633.2909999999997,0.03440119888788473,0.028513993672511617
3635.22,0.0351093440746304,0.028900561919507073
3637.1479999999997,0.035826967868462845,0.03564477983193193
3639.077,0.03655481469239774,0.03194867262186474
3641.005,0.037292129910017735,0.03257545322957611
3642.934,0.03803967837113831,0.029075453540314378
3644.862,0.0387966850125494,0.029463195711195045
3646.7909999999997,0.03956393511085565,0.010377942984767685
3648.719,0.0403406331760543,-0.030320922269352568
3650.6479999999997,0.04112758491154267,-0.04112758491154267
3652.5759999999996,0.04192397440053597,-0.0032400564787726793
3654.505,0.042730627773206464,0.02046456074392644
3656.433,0.043546708685990865,0.009083433839027322
3658.362,0.04437306369585059,0.014973443935808017
3660.29,0.04520883603242609,0.023223894180855797
3662.219,0.04605489267946794,0.027317693997980896
3664.147,0.04691035643983099,0.03143999229159533
3666.0759999999996,0.047776114724058516,0.02963366997219108
3668.0040000000004,0.04865126990821267,0.014766298069144757
3669.933,0.04953672982962587,-0.024676222400130676
3671.861,0.050431576437571124,-0.011616252471130295
3673.79,0.05133673799616645,0.004269246032944984
3675.718,0.052251276027902804,-0.05021549315112184
3677.647,0.053176139223683805,-0.03259239314059492
3679.575,0.05411036867921126,-0.001222973551343376
3681.5040000000004,0.05505493351217794,0.015609172421310102
3683.4320000000002,0.0560088543914965,0.024022480896080722
3685.361,0.0569731208616453,0.02443090218495314
3687.289,0.05794673316475496,0.013876273001220962
3689.218,0.058930701272089436,-0.028909474141795233
3691.1459999999997,0.059924004998986646,-0.02662975654048072
3693.075,0.06092767474351035,0.0006633492128225171
3695.0029999999997,0.06194066989419866,0.015165870083563071
3696.9320000000002,0.06296404127590094,0.01441996761927733
3698.86,0.06399672785038035,0.013387281044797916
