baseline wavenumber (cm-1),baseline absorbance (cm-1),baseline-subtracted absorbance (cm-1)
3199.379,0.171724047306,8.881784197e-15
3201.308,0.169820379239,0.000870108984572
3203.236,0.167927543752,0.000917902522721
3205.165,0.166043577323,0.00094434342918
3207.093,0.16417043326,0.00189284380494
3209.021,0.162307132356,0.00319928632423
3210.95,0.160452715828,0.00385613891792
3212.878,0.158609106348,0.00478971099795
3214.807,0.156774391457,0.00500282475645
3216.736,0.154949529939,0.00525526132752
3218.664,0.153135460147,0.00531531312684
3220.593,0.151330300266,0.00576825426713
3222.521,0.149535921898,0.00426530118871
3224.449,0.147751386689,0.00402790169625
3226.378,0.14597577671,0.00558760143573
3228.306,0.144210932925,0.0070067967825
3230.235,0.142455024584,0.00742994458661
3232.164,0.140708969614,0.00863314096899
3234.092,0.138973665518,0.00879536308851
3236.021,0.137247312185,0.00933860715141
3237.949,0.135531699513,0.00966859362396
3239.877,0.133825929999,0.00890878141319
3241.806,0.132129126569,0.00826155371038
3243.734,0.130443048479,0.0104343395734
3245.663,0.128765946686,0.0118112290953
3247.592,0.127098698265,0.0123950346774
3249.52,0.125442159864,0.0125895292095
3251.448,0.123795464621,0.012990798393
3253.377,0.122157766102,0.0123140826795
3255.305,0.120530762284,0.0126521953629
3257.234,0.118912765402,0.0129601245198
3259.162,0.117305453008,0.0138640102492
3261.091,0.115707157763,0.0130721306225
3263.02,0.114118715891,0.0137767152214
3264.948,0.112540943185,0.0143255280572
3266.876,0.110973013638,0.0159952972889
3268.805,0.109414121668,0.0171030116586
3270.733,0.107865883545,0.0172962007574
3272.662,0.106326693212,0.017293341156
3274.591,0.104797356252,0.0181114681698
3276.519,0.103278657817,0.016658267282
3278.448,0.101769022494,0.0170754635067
3280.376,0.100270015482,0.0182835577513
3282.304,0.0987808516303,0.0190375047833
3284.233,0.0973007662091,0.0185636834018
3286.161,0.0958312937809,0.0189075619757
3288.09,0.0943709099968,0.0187479113921
3290.019,0.0929203795853,0.0189817734522
3291.947,0.0914804468455,0.0187579035033
3293.875,0.0900503572648,0.020215184027
3295.804,0.0886293767551,0.0212100046257
3297.732,0.0872189785983,0.0217451879841
3299.661,0.0858176997258,0.0219499642791
3301.589,0.0844269929927,0.0231329989207
3303.518,0.0830454157574,0.0232276561116
3305.447,0.0816736918946,0.0250666800856
3307.375,0.08031252485,0.0253972194137
3309.303,0.0789612009645,0.0251100110036
3311.232,0.0776190270035,0.0243696518603
3313.16,0.0762873945419,0.0253119686442
3315.089,0.0749649222181,0.0249457722124
3317.017,0.0736529811802,0.0241860464151
3318.946,0.0723502104936,0.0239770916393
3320.875,0.0710572931796,0.0243346000783
3322.803,0.0697748918301,0.024289699295
3324.731,0.0685023336398,0.0263847077026
3326.66,0.0672389662275,0.0268010115345
3328.588,0.065986099461,0.0279241401023
3330.517,0.064742433686,0.0282817753507
3332.445,0.0635092583433,0.0281781974336
3334.374,0.0622852942054,0.0277353264355
3336.302,0.0610718102865,0.0282049510599
3338.231,0.0598675477858,0.0283903113065
3340.159,0.0586737552906,0.0286142261103
3342.088,0.0574891944271,0.0285329424373
3344.016,0.0563150933558,0.0291756071395
3345.945,0.0551502341295,0.0298596213239
3347.873,0.0539958244819,0.0309125450723
3349.802,0.0528506668928,0.0309221017315
3351.73,0.051715948669,0.0316748832323
3353.659,0.0505904927171,0.0319257308754
3355.587,0.0494754659171,0.0313849404308
3357.516,0.0483697116023,0.0317894918749
3359.444,0.0472743762262,0.0324400177898
3361.373,0.0461883235486,0.0331698590047
3363.302,0.0451121242436,0.0329657591083
3365.23,0.0440463285558,0.0317723311025
3367.158,0.0429903760272,0.0333826149765
3369.087,0.041943726624,0.0327114841311
3371.015,0.0409074655192,0.031764524777
3372.944,0.0398805177532,0.0316269117424
3374.872,0.0388639480722,0.0329018459236
3376.801,0.0378567019433,0.0326266195972
3378.729,0.0368598236861,0.0322838132289
3380.658,0.0358722791944,0.0328589954442
3382.586,0.034895092361,0.0339605126122
3384.515,0.0339272495065,0.0339232003065
3386.443,0.0329697540969,0.0330632490366
3388.372,0.0320216128796,0.0318022524798
3390.3,0.0310838088937,0.0326428159925
3392.229,0.0301553693136,0.0341190671566
3394.157,0.0292372567516,0.0347750246595
3396.086,0.0283285188086,0.0342721078971
3398.014,0.0274300976704,0.0353250322194
3399.943,0.0265410613646,0.0353156049651
3401.871,0.0256623316502,0.0359522948534
3403.8,0.0247929969816,0.0365337997433
3405.728,0.0239339586909,0.0367380316052
3407.657,0.0230843256596,0.0360300986809
3409.585,0.0222449787927,0.0360267790159
3411.514,0.0214150473985,0.0338274472947
3413.442,0.0205953919554,0.0334282611327
3415.371,0.0197851621984,0.0324490943467
3417.299,0.0189851981791,0.031592887336
3419.228,0.0181946700592,0.0317776335898
3421.156,0.0174143974637,0.0323465446165
3423.085,0.0166435709811,0.0313779593939
3425.013,0.0158829898094,0.0308005743269
3426.942,0.0151318649639,0.0300574102812
3428.87,0.014390975216,0.0305297768309
3430.799,0.0136595520077,0.0295004095813
3432.727,0.0129383536836,0.0295685198634
3434.656,0.0122266321125,0.0296793620248
3436.584,0.0115251252121,0.0297899965912
3438.513,0.0108331052782,0.0270567158074
3440.441,0.0101512898017,0.0267016870507
3442.37,0.00947897150495,0.02648342615
3444.298,0.00881684745217,0.0259242826398
3446.227,0.00816423079264,0.0258674582804
3448.155,0.00752179816366,0.0279608663466
3450.084,0.00688888314132,0.028561586888
3452.012,0.00626614193612,0.0283529826975
3453.941,0.00565292855097,0.0276028078283
3455.869,0.00504987876956,0.0289760486539
3457.798,0.00445636702159,0.0288461701259
3459.726,0.00387300866398,0.0294814844119
3461.655,0.00329919855319,0.028593099031
3463.583,0.00273553161936,0.0305031725149
3465.512,0.00218142314576,0.0313140281835
3467.44,0.00163744763573,0.0312458031477
3469.369,0.00110304079931,0.0306146889086
3471.297,0.000578756713072,0.0319252865498
3473.226,6.40515138386e-05,0.0323721660137
3475.154,-0.000440541148617,0.0320212547845
3477.083,-0.000935544710664,0.031409667828
3479.011,-0.00142044594932,0.0334177672876
3480.94,-0.00189574787419,0.0362148118588
3482.868,-0.00236095768906,0.0384523859717
3484.797,-0.00281655797674,0.0381282430066
3486.725,-0.00326207636781,0.0388968181044
3488.654,-0.00369797501831,0.0389046868347
3490.582,-0.0041238019856,0.0395020997719
3492.511,-0.00453999899891,0.0404269392597
3494.439,-0.00494613454241,0.0414465388687
3496.368,-0.00534262991853,0.0414636245612
3498.296,-0.00572907403824,0.0428895915759
3500.225,-0.00610586777718,0.043596214487
3502.153,-0.0064726204731,0.0460146198666
3504.082,-0.00682971257485,0.047709930911
3506.01,-0.00717677384698,0.0488904602919
3507.939,-0.00751416431155,0.0511949992453
3509.867,-0.00784153415989,0.0562725459864
3511.796,-0.00815922298727,0.0567568677866
3513.724,-0.00846690141182,0.0558719352741
3515.653,-0.00876488860202,0.0549720047447
3517.581,-0.00905287560278,0.0555271503425
3519.51,-0.00933116115579,0.0577320506736
3521.438,-0.00959945673276,0.0608875392153
3523.367,-0.00985804064859,0.0629595265477
3525.295,-0.0101066448018,0.0641490485216
3527.224,-0.0103455270804,0.0636426563637
3529.152,-0.0105744398098,0.0650149027634
3531.081,-0.0107936204513,0.0635540065829
3533.009,-0.0110028417568,0.0628356022946
3534.938,-0.0112023207611,0.0609391043455
3536.866,-0.0113918506429,0.0601648214304
3538.795,-0.01157162801,0.0582062181242
3540.723,-0.011741466468,0.0578449739986
3542.652,-0.0119015421979,0.0563167347583
3544.58,-0.0120516892322,0.0575326858965
3546.509,-0.0121920633249,0.0583422705421
3548.437,-0.0123225189353,0.0580829556077
3550.366,-0.0124431913909,0.0578698567098
3552.294,-0.0125539555775,0.0606036877113
3554.223,-0.0126549263958,0.0630627400014
3556.151,-0.0127459991587,0.0671376397126
3558.08,-0.0128272683399,0.0725859866255
3560.008,-0.0128986496789,0.0818437118441
3561.937,-0.0129602172229,0.0904970614562
3563.865,-0.0130119071382,0.0960189828483
3565.794,-0.013053773045,0.0978307870953
3567.722,-0.0130857715365,0.0978720345507
3569.651,-0.0131079358061,0.0946601444384
3571.579,-0.0131202428738,0.0936538019559
3573.508,-0.0131227055062,0.0899554660439
3575.436,-0.0131153211501,0.0818037372018
3577.365,-0.0130980821453,0.071869334546
3579.293,-0.0130710063654,0.0661038073358
3581.222,-0.0130340657235,0.0622191460833
3583.15,-0.0129872985198,0.060723879941
3585.079,-0.0129306562407,0.0605560984726
3587.007,-0.0128641976132,0.0659413228533
3588.936,-0.0127878536969,0.0730546585084
3590.864,-0.0127017036456,0.0780573086189
3592.793,-0.0126056580921,0.0893539649758
3594.721,-0.0124998166171,0.110420821368
3596.65,-0.0123840694264,0.128912675512
3598.578,-0.0122585365276,0.136178075596
3600.507,-0.0121230876997,0.121088821047
3602.435,-0.0119778633771,0.0895538261791
3604.364,-0.011822712912,0.0636287879145
3606.292,-0.0116577971656,0.0514424934155
3608.221,-0.0114829450634,0.0463975311343
3610.149,-0.0112983378931,0.0440228400664
3612.078,-0.0111037841537,0.0397008224636
3614.006,-0.0108994855597,0.0417324988014
3615.935,-0.0106852301831,0.0401522775904
3617.863,-0.0104612401653,0.0377860152588
3619.792,-0.0102272831515,0.0371954929969
3621.72,-0.00998360170994,0.0355366189949
3623.649,-0.00972994305897,0.0315982843104
3625.577,-0.00946657019358,0.0298353157713
3627.506,-0.00919320990543,0.0248488755276
3629.434,-0.00891014561626,0.0301414707957
3631.363,-0.00861708369092,0.0309591437334
3633.291,-0.00831432797796,0.0285157330118
3635.22,-0.00800156441543,0.0277731706016
3637.148,-0.00767911727868,0.0282743361203
3639.077,-0.00734665207897,0.0291075941592
3641.005,-0.00700451351842,0.0283908978306
3642.934,-0.00665234668153,0.0264090938765
3644.862,-0.0062905166972,0.0242265320616
3646.791,-0.00591864822312,0.0237310913647
3648.719,-0.00553712681499,0.0259994739291
3650.648,-0.00514555670373,0.0268075399242
3652.576,-0.00474434387181,0.0236979979707
3654.505,-0.00433307212337,0.0185101164982
3656.433,-0.00391216786766,0.0203747171449
3658.362,-0.00348119448203,0.0196716321652
3660.29,-0.00304059880253,0.0187375562472
3662.219,-0.00258992377971,0.0176037214144
3664.147,-0.00212963667643,0.0170127863782
3666.076,-0.00165926001642,0.0144253572569
3668.004,-0.00117928148935,0.0138108896972
3669.933,-0.000689203192163,0.0187408053351
3671.861,-0.000189533241294,0.0197602903423
3673.79,0.000320246693079,0.0113905083863
3675.718,0.000839608067739,0.0134693983004
3677.647,0.00136908963929,0.0141140802788
3679.575,0.00190814243775,0.0104972452101
3681.504,0.00245732564649,0.0100806304841
3683.432,0.00301606986872,0.00849646424631
3685.361,0.00358495471465,0.0048832045899
3687.289,0.00416339036068,0.00360700284664
3689.218,0.00475197684379,0.00675044911396
3691.146,0.00535010391361,0.00897558091404
3693.075,0.00595839203391,0.00572668832594
3695.003,0.00657621052752,0.00266148279099
3696.932,0.007204200285,0.00138454933594
3698.86,0.0078417102024,0.000747039418541
