baseline wavenumber (cm-1),baseline absorbance (cm-1),baseline-subtracted absorbance (cm-1)
3199.379,0.0370685678339,1.13242748512e-14
3201.308,0.0357485819354,0.00558328358501
3203.236,0.0344391260338,0.00966690597852
3205.165,0.0331388417724,0.0129644643015
3207.093,0.0318490772946,0.00772770330229
3209.021,0.030569155976,-0.00175493915909
3210.95,0.0292984216164,-0.000270672961934
3212.878,0.0280381917216,0.00761044181439
3214.807,0.0267871589992,0.0103991833507
3216.736,0.0255459796494,0.00648973713257
3218.664,0.024315289443,0.00177578485629
3220.593,0.0230938117304,0.00413971032177
3222.521,0.0218828129477,0.0096538474283
3224.449,0.0206816573243,0.0134362569834
3226.378,0.0194897295135,0.0117191193018
3228.306,0.0183082653138,0.00925935892606
3230.235,0.0171360391402,0.00617877179156
3232.164,0.0159736663391,0.00733834875842
3234.092,0.0148217418278,0.009331819366
3236.021,0.0136790706639,0.013072868946
3237.949,0.0125468375765,0.0142393510026
3239.877,0.0114244476482,0.0166673955055
3241.806,0.0103113263861,0.0183945518553
3243.734,0.00920862788162,0.0175639310056
3245.663,0.00811520825668,0.012440463792
3247.592,0.00703164200435,0.0142956802854
3249.52,0.00595848318825,0.019889353535
3251.448,0.00489516753136,0.0233364673327
3253.377,0.00384115118079,0.0210840602542
3255.305,0.0027975269477,0.0169480521395
3257.234,0.00176321223431,0.0175332859833
3259.162,0.000739279425009,0.0209892450735
3261.091,-0.000275333651189,0.0244330885963
3263.02,-0.00128009335478,0.0225074645717
3264.948,-0.00227448647572,0.0189757515907
3266.876,-0.00325903643744,0.0175429534012
3268.805,-0.00423424623927,0.0143258098096
3270.733,-0.00519910477721,0.0206198778254
3272.662,-0.00615461294185,0.0281109979282
3274.591,-0.00710026773389,0.0288651380771
3276.519,-0.00803558658345,0.0317239908611
3278.448,-0.00896153973831,0.0303325469376
3280.376,-0.00987716716408,0.024778264529
3282.304,-0.0107829514306,0.028025559944
3284.233,-0.0116793546837,0.030140597432
3286.161,-0.0125654475265,0.0254318765473
3288.09,-0.0134421491424,0.0183418485902
3290.019,-0.0143089973857,0.0207991770181
3291.947,-0.0151655505401,0.030097052602
3293.875,-0.0160122605353,0.0315707284182
3295.804,-0.0168495588768,0.0348201327218
3297.732,-0.0176765774482,0.0363824556897
3299.661,-0.0184941741526,0.0321815299924
3301.589,-0.0193015013002,0.0324698804153
3303.518,-0.0200993963674,0.0375841940189
3305.447,-0.0208874380619,0.0380783236424
3307.375,-0.0216652255212,0.0395690488244
3309.303,-0.0224331698212,0.0447994939982
3311.232,-0.023191661614,0.0439423430986
3313.16,-0.0239399144902,0.0374256207879
3315.089,-0.0246787046458,0.0356506065121
3317.017,-0.0254072660983,0.0398288778967
3318.946,-0.0261263546167,0.0427633155449
3320.875,-0.0268355897625,0.0440215826332
3322.803,-0.0275346115266,0.0462237147628
3324.731,-0.0282237901315,0.0448373359482
3326.66,-0.0289034753755,0.0439328316347
3328.588,-0.0295729625566,0.0497795048087
3330.517,-0.0302329461635,0.0507134801678
3332.445,-0.0308827419208,0.0453462912323
3334.374,-0.0315230238905,0.0412794368352
3336.302,-0.032153128224,0.0394303351856
3338.231,-0.0327737085565,0.0423808938504
3340.159,-0.0333841214662,0.0485354459926
3342.088,-0.0339850001615,0.0588902912777
3344.016,-0.0345757216474,0.0623848360669
3345.945,-0.0351568987055,0.0554672363025
3347.873,-0.0357279287677,0.0535870187236
3349.802,-0.0362894041886,0.0552262882314
3351.73,-0.0368407428269,0.0583476974645
3353.659,-0.0373825166107,0.0551587799783
3355.587,-0.0379141638252,0.0475458126685
3357.516,-0.0384362359718,0.0463194399978
3359.444,-0.0389481917626,0.0519407828019
3361.373,-0.039450562272,0.0593768221448
3363.302,-0.0399430794088,0.0592567021109
3365.23,-0.0404254955111,0.0540478482056
3367.158,-0.0408980684543,0.0515505462624
3369.087,-0.0413610356893,0.053037837255
3371.015,-0.0418139172087,0.0577847706371
3372.944,-0.0422571828066,0.0560511298255
3374.872,-0.0426903729022,0.0577742479284
3376.801,-0.0431139368628,0.0600406161107
3378.729,-0.0435274355346,0.0581024687351
3380.658,-0.0439312978581,0.0599919674604
3382.586,-0.0443251051061,0.0681085677468
3384.515,-0.0447092657924,0.0662763308654
3386.443,-0.0450833816166,0.0580724778632
3388.372,-0.0454478406657,0.0553765468934
3390.3,-0.0458022650661,0.0571211998533
3392.229,-0.046147022478,0.061500346026
3394.157,-0.0464817554547,0.0634423341924
3396.086,-0.0468068112294,0.0623803067211
3398.014,-0.0471218527823,0.0694665092441
3399.943,-0.0474272069198,0.0706183021879
3401.871,-0.0477225570489,0.0613844009015
3403.8,-0.0480082095492,0.060132344588
3405.728,-0.0482838682545,0.0666979313005
3407.657,-0.0485498191177,0.0703650144766
3409.585,-0.0488057863991,0.0689955536459
3411.514,-0.0490520356251,0.0714428233514
3413.442,-0.0492883114828,0.0778229448791
3415.371,-0.0495148590716,0.0717389451833
3417.299,-0.0497314435055,0.0670645671513
3419.228,-0.0499382894571,0.0697806743037
3421.156,-0.0501351824672,0.0701921475892
3423.085,-0.0503223267817,0.0757221310733
3425.013,-0.050499528368,0.0790925248033
3426.942,-0.0506669710453,0.0804712626508
3428.87,-0.0508244812078,0.0826386281289
3430.799,-0.0509722222478,0.0813171582931
3432.727,-0.0511100409866,0.0773181908433
3434.656,-0.0512380803895,0.0760207042799
3436.584,-0.0513562077044,0.0761059805429
3438.513,-0.0514645454701,0.0747087615881
3440.441,-0.0515629813613,0.0814895907133
3442.37,-0.0516516174898,0.0814482205512
3444.298,-0.0517303619571,0.0812337519061
3446.227,-0.0517992964485,0.0809836118186
3448.155,-0.051858349492,0.0775426299142
3450.084,-0.0519075823462,0.0813976920827
3452.012,-0.051946943966,0.0877898879794
3453.941,-0.0519764751829,0.086477418777
3455.869,-0.0519961453789,0.0853308766293
3457.798,-0.0520059749587,0.08761826265
3459.726,-0.0520059537309,0.0859896679966
3461.655,-0.0519960816735,0.0758071531769
3463.583,-0.0519763690219,0.0769452653663
3465.512,-0.0519467953273,0.0864278186026
3467.44,-0.0519073912519,0.0883835917132
3469.369,-0.0518581159201,0.0850921971391
3471.297,-0.0517990204209,0.0801571667829
3473.226,-0.051730043452,0.07207847429
3475.154,-0.051651256529,0.0733455320585
3477.083,-0.0515625779229,0.0777434683961
3479.011,-0.0514640995761,0.0804083226837
3480.94,-0.0513557193328,0.0849490652474
3482.868,-0.0512375495622,0.0846659412586
3484.797,-0.0511094676817,0.078129108417
3486.725,-0.0509716064874,0.0742214142738
3488.654,-0.0508238229697,0.070189518084
3490.582,-0.0506662703516,0.0657962766422
3492.511,-0.0504987851967,0.06246146081
3494.439,-0.0503215411548,0.0701873411128
3496.368,-0.0501343543627,0.0735672892896
3498.296,-0.049937418897,0.07170718195
3500.225,-0.0497305304677,0.0752047738451
3502.153,-0.0495139035782,0.0790718122942
3504.082,-0.0492873135118,0.0719122523529
3506.01,-0.0490509951985,0.0683045074652
3507.939,-0.0488047034949,0.074468714119
3509.867,-0.0485486937578,0.0773856267277
3511.796,-0.048282700417,0.0712242674821
3513.724,-0.0480069992561,0.0661337903374
3515.653,-0.0477213042781,0.0674392745025
3517.581,-0.0474259116935,0.0710542055356
3519.51,-0.0471205150783,0.067248075014
3521.438,-0.0468054310698,0.065885951095
3523.367,-0.0464803328175,0.0648538562675
3525.295,-0.0461455573852,0.0608156489488
3527.224,-0.0458007574957,0.0611977659531
3529.152,-0.0454462906396,0.0592839225681
3531.081,-0.0450817891129,0.0561826488319
3533.009,-0.0447076308331,0.0644878083685
3534.938,-0.0443234276692,0.0703536925745
3536.866,-0.0439295779655,0.0645817062943
3538.795,-0.0435256731644,0.0606987353019
3540.723,-0.043112132037,0.0594614715212
3542.652,-0.0426885255988,0.0635234315888
3544.58,-0.0422552930476,0.0669005715825
3546.509,-0.0418119849721,0.0600202047247
3548.437,-0.0413590609971,0.0547161589212
3550.366,-0.0408960512844,0.0596990847646
3552.294,-0.0404234358857,0.0645633673877
3554.223,-0.0399407245358,0.0592875477692
3556.151,-0.0394484177133,0.057122283653
3558.08,-0.0389460047262,0.0674670084307
3560.008,-0.0384340064799,0.0760096687431
3561.937,-0.0379118918557,0.075152054014
3563.865,-0.0373802021855,0.0755080417046
3565.794,-0.0368383859241,0.07325447595
3567.722,-0.0362870048302,0.054120582799
3569.651,-0.0357254869316,0.0545875824093
3571.579,-0.0351544144139,0.0587645353337
3573.508,-0.0345731948781,0.0559449010359
3575.436,-0.0339824309366,0.0508151002593
3577.365,-0.0333815097636,0.0517532858173
3579.293,-0.0327710543983,0.0508877105806
3581.222,-0.0321504315882,0.0500622929148
3583.15,-0.0315202847991,0.0530408691284
3585.079,-0.0308799603518,0.0607723207348
3587.007,-0.0302301221389,0.0606141998631
3588.936,-0.0295700960544,0.0563776028692
3590.864,-0.0289005664177,0.0693943806345
3592.793,-0.028220838696,0.0887401649
3594.721,-0.0275316176355,0.108633875272
3596.65,-0.0268321882767,0.119254778617
3598.578,-0.0261232757924,0.125146830696
3600.507,-0.0254041447963,0.107740763235
3602.435,-0.0246755408883,0.078912627629
3604.364,-0.023936708255,0.0638182347805
3606.292,-0.0231884129232,0.0561694711464
3608.221,-0.0224298786528,0.0440437739488
3610.149,-0.0216618918971,0.0299683153262
3612.078,-0.0208836559895,0.0315605973469
3614.006,-0.0200959778101,0.0291502868896
3615.935,-0.0192980402653,0.0380469044577
3617.863,-0.0184906706621,0.0364126668877
3619.792,-0.0176730314801,0.0184289551538
3621.72,-0.0168459704531,0.0250171454024
3623.649,-0.0160086296339,0.0329601219104
3625.577,-0.0151618771831,0.0345464441783
3627.506,-0.0143048347268,0.038145961448
3629.434,-0.0134383908522,0.0179526146587
3631.363,-0.0125616467587,0.0236583127264
3633.291,-0.0116755114603,0.0296719467717
3635.22,-0.0107790657296,0.0274771855311
3637.148,-0.00987323900739,0.030191964107
3639.077,-0.00895709163949,0.0200467680217
3641.005,-0.00803157349353,0.0194794661335
3642.934,-0.00709572448844,0.0256415412215
3644.862,-0.00615051491869,0.0361770753437
3646.791,-0.00519496427642,0.0380904000771
3648.719,-0.00423006328287,0.0238050964834
3650.648,-0.00325481100342,0.012036875727
3652.576,-0.00227021858608,0.0174886431335
3654.505,-0.00127526466944,0.0292751947736
3656.433,-0.000270980828317,0.010392250137
3658.362,0.000743674725509,0.00455268370044
3660.29,0.00176764999043,0.020074804752
3662.219,0.00280200718143,0.026923651587
3664.147,0.00384567387014,0.0267176867226
3666.076,0.00489973269834,0.0257904888715
3668.004,0.00596309081083,0.026637384481
3669.933,0.00703685127621,0.0116110134054
3671.861,0.0081199008125,0.00603505829843
3673.79,0.00921336291506,0.029322318919
3675.718,0.0103161038751,0.00982997846217
3677.647,0.0114292676149,0.00192258812006
3679.575,0.0125516999988,0.00510678885285
3681.504,0.0136845653757,0.00145942008597
3683.432,0.0148266891834,0.00424788969412
3685.361,0.0159792561975,0.0101659873896
3687.289,0.0171410714289,0.0189293835931
3689.218,0.0183133400802,-0.00345592762478
3691.146,0.0194948467355,-0.0194948467355
3693.075,0.020686817024,-0.0104834200854
3695.003,0.021888015103,0.00761257901179
3696.932,0.0230996870287,0.01220016619
3698.86,0.0243205765315,0.0109792766872
