baseline wavenumber (cm-1),baseline absorbance (cm-1),baseline-subtracted absorbance (cm-1)
3199.379,0.22315940564,2.07889261361e-14
3201.308,0.221206446666,0.000154111304752
3203.236,0.219264345823,0.0011592870487
3205.165,0.217331088485,0.00109143248902
3207.093,0.215408679067,0.00203673688397
3209.021,0.213496112807,0.00198776468193
3210.95,0.211592405371,0.00355876212082
3212.878,0.209699530536,0.00412600266966
3214.807,0.207815524737,0.00493470269657
3216.736,0.205941372311,0.00389765528437
3218.664,0.204078037164,0.00409309393923
3220.593,0.202223586375,0.0041645163242
3222.521,0.200379942651,0.00604414508767
3224.449,0.198546142087,0.00671530540132
3226.378,0.1967212412,0.00734678669882
3228.306,0.194907132059,0.00750745401182
3230.235,0.193101932809,0.00873295044157
3232.164,0.191306586932,0.00787955478449
3234.092,0.18952201748,0.00947080572862
3236.021,0.18774637324,0.0105068866412
3237.949,0.185981495211,0.0113460596256
3239.877,0.184226460342,0.0112421538296
3241.806,0.182480366004,0.0123304598328
3243.734,0.180745022558,0.0112320824655
3245.663,0.179018629857,0.0118980283861
3247.592,0.177302090528,0.0125828786417
3249.52,0.175596286771,0.0138859734125
3251.448,0.173900326174,0.0136031105998
3253.377,0.172213336747,0.0144469786277
3255.305,0.170537067573,0.0147747185386
3257.234,0.168869779783,0.0149575223496
3259.162,0.167213202033,0.0143774175971
3261.091,0.165565615881,0.0154985709182
3263.02,0.163927883101,0.0154451584439
3264.948,0.162300845039,0.0168408713263
3266.876,0.160683650136,0.0170543464271
3268.805,0.159075467258,0.018247286204
3270.733,0.157477963779,0.0181323667575
3272.662,0.155889482538,0.018358672723
3274.591,0.15431085467,0.0177914398817
3276.519,0.15274289088,0.0188481836176
3278.448,0.151183964648,0.0185701544256
3280.376,0.149635692282,0.019576376858
3282.304,0.148097263074,0.0197142703332
3284.233,0.146567886745,0.0207409680008
3286.161,0.145049148961,0.020909862461
3288.09,0.143539474269,0.0218523179072
3290.019,0.14203965295,0.0216954122481
3291.947,0.140550454854,0.0228262761677
3293.875,0.139071099918,0.0232356321146
3295.804,0.1376008285,0.0244243913521
3297.732,0.136141164988,0.0233864808222
3299.661,0.134690595207,0.0239943840709
3301.589,0.133250623119,0.0240891625882
3303.518,0.131819754975,0.0253161491992
3305.447,0.130398740205,0.0246986518908
3307.375,0.128988307804,0.0261197483969
3309.303,0.127587718564,0.0263178207067
3311.232,0.126196253694,0.0269138241383
3313.16,0.124815355877,0.0266307171036
3315.089,0.123443592645,0.0278822943453
3317.017,0.122082386252,0.0277437029018
3318.946,0.120730324657,0.0282394519523
3320.875,0.119388116435,0.0278631218139
3322.803,0.11805644973,0.0291743195004
3324.731,0.116734626185,0.0295847915856
3326.66,0.115421967864,0.03131673627
3328.588,0.114119835742,0.0305669124635
3330.517,0.112826879059,0.0302023840562
3332.445,0.111544438361,0.0302585536536
3334.374,0.110271183315,0.0314797011488
3336.302,0.109008434041,0.0311539535062
3338.231,0.107754880632,0.0320689341867
3340.159,0.106511822781,0.0319200987795
3342.088,0.10527797101,0.0330393745883
3344.016,0.104054604583,0.0325236325546
3345.945,0.102840454448,0.0334197295201
3347.873,0.101636779445,0.0336722269228
3349.802,0.100442330948,0.0355588314899
3351.73,0.0992583473689,0.035721790102
3353.659,0.0980836005089,0.0362452683883
3355.587,0.0969193083534,0.0360977744324
3357.516,0.0957642631306,0.0367925447133
3359.444,0.0946196623989,0.0365681471634
3361.373,0.0934843188133,0.0371113043546
3363.302,0.0923588286002,0.0363094722185
3365.23,0.0912437675569,0.0368497834387
3367.158,0.0901385496729,0.0370791294942
3369.087,0.0890426093616,0.0388068801765
3371.015,0.0879570829013,0.0385817324227
3372.944,0.0868808442272,0.0384632879875
3374.872,0.0858150091907,0.0379195505991
3376.801,0.0847584721538,0.0391965465463
3378.729,0.0837123285411,0.0392847400933
3380.658,0.0826754931413,0.0399848222332
3382.586,0.0816490409524,0.039064544411
3384.515,0.0806319071899,0.0391218075579
3386.443,0.0796251464247,0.0394606212898
3388.372,0.0786277142994,0.0417978391222
3390.3,0.077640644958,0.0425475183898
3392.229,0.0766629144699,0.0424357411452
3394.157,0.0756955365523,0.0419732191335
3396.086,0.0747375077013,0.0434093132832
3398.014,0.0737898212076,0.0431590315166
3399.943,0.0728514939938,0.0452524684039
3401.871,0.0719234989238,0.0458278909478
3403.8,0.0710048733472,0.0462425743431
3405.728,0.070096569701,0.0463387886332
3407.657,0.0691976457616,0.0478109967129
3409.585,0.0683090335392,0.0471796958655
3411.514,0.0674298112369,0.047664396789
3413.442,0.0665608904383,0.0470932084195
3415.371,0.0657013697733,0.0474371625223
3417.299,0.0648521403985,0.0471931441462
3419.228,0.0640123213706,0.0477433139271
3421.156,0.0631827834196,0.0475303976175
3423.085,0.0623626660289,0.0488090715634
3425.013,0.0615528195016,0.0490770703195
3426.942,0.0607524037481,0.0506126018114
3428.87,0.0599622486447,0.0507083265095
3430.799,0.0591815345284,0.0514404203893
3432.727,0.0584110708487,0.0516750001105
3434.656,0.0576500583696,0.0527937402759
3436.584,0.0568992861137,0.0525691764356
3438.513,0.0561579752718,0.053828833583
3440.441,0.0554268944397,0.0536244549993
3442.37,0.0547052852349,0.0532150624857
3444.298,0.0539938958267,0.052246829939
3446.227,0.0532919882591,0.0521395795161
3448.155,0.0526002902746,0.0516201686358
3450.084,0.0519180843442,0.0542960569679
3452.012,0.0512460777835,0.0548874509742
3453.941,0.0505835734903,0.0562345302194
3455.869,0.0499312583534,0.0562796988891
3457.798,0.0492884556973,0.0574457503069
3459.726,0.0486558319842,0.0565106493662
3461.655,0.0480327309654,0.0573322240533
3463.583,0.0474197986761,0.0583274468511
3465.512,0.0468163992944,0.0603902619813
3467.44,0.0462231584289,0.0602060339294
3469.369,0.0456394606844,0.0611717189376
3471.297,0.0450659112426,0.0614679005435
3473.226,0.0445019151353,0.0628849745847
3475.154,0.0439480571174,0.0631082958595
3477.083,0.0434037626473,0.0652198095755
3479.011,0.0428695960531,0.0649985430351
3480.94,0.0423450032202,0.0642936806977
3482.868,0.0418305280498,0.0642885965837
3484.797,0.0413256368541,0.067609974184
3486.725,0.0408308531075,0.0669261973322
3488.654,0.040345663549,0.0669930608016
3490.582,0.0398705712262,0.0669101323016
3492.511,0.0394050833048,0.0674338432089
3494.439,0.0389496824058,0.0658938433194
3496.368,0.0385038961216,0.0659819524582
3498.296,0.0380681866464,0.0663215333576
3500.225,0.0376421019994,0.0670002208551
3502.153,0.037226083948,0.0648260741436
3504.082,0.0368197009382,0.0651636711431
3506.01,0.0364233743106,0.067649606585
3507.939,0.0360366929379,0.0705821789917
3509.867,0.0356600577341,0.0721848325924
3511.796,0.0352930779987,0.0762322934761
3513.724,0.0349361342186,0.0755574471015
3515.653,0.0345888561203,0.0751760281413
3517.581,0.0342516037641,0.0753505391652
3519.51,0.033924027303,0.0776083188003
3521.438,0.0336064663706,0.0781347142622
3523.367,0.0332985915467,0.0780362917041
3525.295,0.033000722038,0.0768660019082
3527.224,0.0327125488513,0.0758447644005
3529.152,0.0324343707664,0.0749412483582
3531.081,0.0321658992169,0.0769071322195
3533.009,0.0319074125558,0.0772234375402
3534.938,0.0316586426434,0.0767679721347
3536.866,0.0314198474062,0.0732064540191
3538.795,0.031190779131,0.0742195615139
3540.723,0.0309716753175,0.0751000420584
3542.652,0.0307623086795,0.0738275022979
3544.58,0.0305628962898,0.0673418848686
3546.509,0.030373231289,0.0635606613624
3548.437,0.0301935103231,0.064820893801
3550.366,0.0300235469595,0.0681334832639
3552.294,0.0298635174173,0.0681680200334
3554.223,0.0297132556909,0.0743073144091
3556.151,0.0295729175726,0.0812913298751
3558.08,0.0294423574834,0.0886697419809
3560.008,0.0293217107888,0.0951345208902
3561.937,0.0292108523368,0.102656427558
3563.865,0.029109897066,0.105505437009
3565.794,0.0290187402511,0.0993511172239
3567.722,0.0289374764042,0.0917177848917
3569.651,0.0288660212265,0.102811983423
3571.579,0.0288044488033,0.109755037702
3573.508,0.0287526952628,0.106535993709
3575.436,0.0287108142634,0.0945980404824
3577.365,0.0286787623601,0.0837784295938
3579.293,0.0286565727845,0.0742960704986
3581.222,0.0286442225184,0.0703416260614
3583.15,0.0286417243666,0.0686027919581
3585.079,0.0286490757376,0.0665527336225
3587.007,0.0286662690096,0.0604809057604
3588.936,0.0286933220178,0.0699116006548
3590.864,0.0287302067136,0.0835312913153
3592.793,0.028776961359,0.093986406679
3594.721,0.0288335374786,0.109509735543
3596.65,0.0288999937612,0.131095204864
3598.578,0.0289762613046,0.137862917913
3600.507,0.0290624192244,0.120774384576
3602.435,0.0291583781915,0.0911267729254
3604.364,0.0292642377485,0.0709718888056
3606.292,0.0293798881394,0.0539570167428
3608.221,0.0295054493336,0.0390553006917
3610.149,0.0296407911483,0.0354153091246
3612.078,0.0297860539797,0.0343985715131
3614.006,0.0299410872182,0.0301363918074
3615.935,0.0301060516867,0.0340663934765
3617.863,0.030280776349,0.0297559162619
3619.792,0.0304654424548,0.0247208003432
3621.72,0.0306598585409,0.0296463175432
3623.649,0.0308642262838,0.0346085322324
3625.577,0.0310783337936,0.0305449857252
3627.506,0.0313024031737,0.0171278000002
3629.434,0.0315362021074,0.00359889341467
3631.363,0.0317799731247,0.0235599642047
3633.291,0.0320334634822,0.0300593799425
3635.22,0.0322969361366,0.0317258577581
3637.148,0.0325701179179,0.0324186620275
3639.077,0.0328532922095,0.0326148165543
3641.005,0.0331461654146,0.0310411387399
3642.934,0.0334490413434,0.0300046632962
3644.862,0.0337616059722,0.0281550017302
3646.791,0.0340841835383,0.0150713810023
3648.719,0.0344164395909,-0.00476744535253
3650.648,0.0347587187941,-0.00214682149297
3652.576,0.0351106662705,0.0172424622042
3654.505,0.0354726471109,0.0221013951412
3656.433,0.0358442860111,0.0148078922968
3658.362,0.0362259684887,0.0208791058063
3660.29,0.0366172988127,0.0246223655965
3662.219,0.0370186829274,0.0265782543009
3664.147,0.0374297046752,0.0270704974879
3666.076,0.0378507904272,0.0267979511073
3668.004,0.0382815035987,0.0181052850397
3669.933,0.0387222909879,0.00245313608178
3671.861,0.0391726955832,0.0049934825225
3673.79,0.0396331846095,0.00244212116221
3675.718,0.0401032806287,-0.0188365768988
3677.647,0.0405834712922,0.00156587673165
3679.575,0.0410732587352,0.0108448146501
3681.504,0.0415731510358,0.0144093113113
3683.432,0.0420826299026,0.014642276597
3685.361,0.0426022238404,0.0126627615027
3687.289,0.043131394131,0.00266826219168
3689.218,0.043670689706,-0.0090948785264
3691.146,0.0442195514204,-0.00718705369469
3693.075,0.0447785486326,0.00360702702698
3695.003,0.0453471017707,0.00852543436597
3696.932,0.0459258006201,0.00723279636765
3698.86,0.046514045182,0.00664455180575
