baseline wavenumber (cm-1),baseline absorbance (cm-1),baseline-subtracted absorbance (cm-1)
3199.379,0.160496310523,2.0872192863e-14
3201.308,0.158648848601,0.00314383309278
3203.236,0.156812190122,0.00485211797422
3205.165,0.154984429838,0.00706449364287
3207.093,0.153167462783,0.00575551305827
3209.021,0.151360338887,0.00407784973092
3210.95,0.149562128505,0.00452662111592
3212.878,0.147774696033,0.00806529183733
3214.807,0.145996187288,0.0103097866332
3216.736,0.144227531915,0.00926837428098
3218.664,0.142469639132,0.00868066916725
3220.593,0.140720685396,0.0103891902734
3222.521,0.138982484036,0.0105353568613
3224.449,0.137254125835,0.0109633006277
3226.378,0.135534722002,0.00810825788281
3228.306,0.133826055225,0.00589243259469
3230.235,0.132126353029,0.00763054578871
3232.164,0.130436504205,0.0101103471041
3234.092,0.128757377116,0.0100781631647
3236.021,0.12708722993,0.0105494828975
3237.949,0.125427794265,0.0123241515554
3239.877,0.123778201759,0.0149982058016
3241.806,0.122137604474,0.0125707751879
3243.734,0.120507703393,0.011160142559
3245.663,0.118886807745,0.0121598919416
3247.592,0.11727576547,0.0151153191352
3249.52,0.115675404077,0.0154481176054
3251.448,0.114084885842,0.0149113741394
3253.377,0.112503393469,0.0153228473072
3255.305,0.110932566659,0.0150287190989
3257.234,0.109370775923,0.0157479949254
3259.162,0.107819640536,0.0176246129766
3261.091,0.106277551437,0.0171946005896
3263.02,0.104745315711,0.0177337098628
3264.948,0.103223720013,0.018463331438
3266.876,0.101711967473,0.018047963791
3268.805,0.100209281649,0.0206059412359
3270.733,0.0987172205337,0.0212246575619
3272.662,0.0972342363464,0.0174488729228
3274.591,0.0957611055317,0.0159638515087
3276.519,0.0942985841048,0.0163210459367
3278.448,0.0928451549272,0.0189465159512
3280.376,0.0914023249241,0.0205995956258
3282.304,0.0899693380802,0.0206169350422
3284.233,0.0885454588044,0.0206898590971
3286.161,0.0871321633843,0.0191268076053
3288.09,0.0857279857457,0.0168890161748
3290.019,0.0843336614798,0.020153854946
3291.947,0.082949905748,0.0198510646351
3293.875,0.0815759931755,0.02149890827
3295.804,0.0802112188113,0.0248034380168
3297.732,0.0788569976625,0.0253201983347
3299.661,0.0775119249355,0.0253779972317
3301.589,0.0761773952105,0.0237174799537
3303.518,0.0748520241207,0.0201125973288
3305.447,0.0735365064035,0.0206326030679
3307.375,0.0722315163669,0.0243529372872
3309.303,0.0709363694895,0.0265401290448
3311.232,0.069650401674,0.0253597064833
3313.16,0.0683749462204,0.0232696509695
3315.089,0.0671086800421,0.0211001544873
3317.017,0.0658529160123,0.0220248763661
3318.946,0.0646063514713,0.0232421272511
3320.875,0.0633696403028,0.0239496763858
3322.803,0.0621434159613,0.0221742834221
3324.731,0.0609270347791,0.0228074239291
3326.66,0.0597198735124,0.02555405755
3328.588,0.058523183754,0.0265081515336
3330.517,0.0573357241244,0.0262642960919
3332.445,0.0561587257898,0.0281261220825
3334.374,0.0549909677974,0.0255968215486
3336.302,0.0538336608866,0.0239046389214
3338.231,0.0526856045314,0.027164289333
3340.159,0.0515479890443,0.0272198265829
3342.088,0.0504196343263,0.0233269541706
3344.016,0.0493017102631,0.0257068816706
3345.945,0.0481930571823,0.0287734848171
3347.873,0.0470948245428,0.03027553834
3349.802,0.0460058730992,0.0285488625725
3351.73,0.0449273318835,0.027924179286
3353.659,0.0438580820771,0.0288670771264
3355.587,0.0427992322852,0.0304636808858
3357.516,0.0417496841159,0.0299191726515
3359.444,0.0407105257478,0.0293283906577
3361.373,0.0396806792157,0.0300196139208
3363.302,0.0386606860563,0.0309410525468
3365.23,0.0376510673766,0.032637015106
3367.158,0.036651291856,0.0307246305133
3369.087,0.0356608485983,0.0302812316604
3371.015,0.0346807645016,0.0340451022729
3372.944,0.0337100228811,0.0320662835982
3374.872,0.0327496302082,0.0298870826191
3376.801,0.0317985902248,0.0298262960584
3378.729,0.0308578889757,0.0315574552071
3380.658,0.0299265506295,0.0319434584678
3382.586,0.0290055408042,0.0353723021151
3384.515,0.0280939040952,0.0362571522072
3386.443,0.0271925856936,0.0329256797466
3388.372,0.0263006506219,0.0303520330939
3390.3,0.0254190236441,0.0327569593742
3392.229,0.0245467902095,0.0319502278841
3394.157,0.0236848546555,0.0333140334472
3396.086,0.0228323228581,0.0332477337476
3398.014,0.0219900787279,0.0340520722879
3399.943,0.0211572485677,0.0350385464389
3401.871,0.0203346958613,0.0361173409324
3403.8,0.0195215673383,0.0385078473994
3405.728,0.0187187060556,0.0367776044669
3407.657,0.0179252791698,0.035624705668
3409.585,0.017142109311,0.0387661086209
3411.514,0.0163683840623,0.0384875746964
3413.442,0.0156049056273,0.0376104992044
3415.371,0.0148508820158,0.0390811911673
3417.299,0.0141070950045,0.0392119184393
3419.228,0.0133727730302,0.035703846802
3421.156,0.0126486774428,0.0337922403779
3423.085,0.0119340571057,0.0309083567223
3425.013,0.011229652942,0.0305059176635
3426.942,0.0105347342421,0.0315879787873
3428.87,0.00985002150222,0.0324516059111
3430.799,0.00917480443948,0.0348583503164
3432.727,0.0085097831234,0.0374312863196
3434.656,0.00785426769784,0.0368864580679
3436.584,0.00720893780555,0.0347808529556
3438.513,0.00657312401718,0.0328173540987
3440.441,0.00594748554868,0.0334718008154
3442.37,0.00533137339749,0.0309154678034
3444.298,0.00472542635278,0.0292197874347
3446.227,0.00412901583878,0.0289388098966
3448.155,0.00354276021786,0.0332276835302
3450.084,0.00296605134104,0.0350850959348
3452.012,0.00239948714392,0.0331761724133
3453.941,0.00184247990428,0.0310964668257
3455.869,0.00129560713095,0.0343745636969
3457.798,0.000758301528496,0.038737806831
3459.726,0.000231120178949,0.0377624106004
3461.655,-0.000286483786319,0.0341761027088
3463.583,-0.000793973712074,0.0359324554668
3465.512,-0.00129187604015,0.0368159839953
3467.44,-0.00177967454212,0.0375342484833
3469.369,-0.00225787523301,0.0393361123704
3471.297,-0.00272598231119,0.0414286003239
3473.226,-0.0031844813649,0.0408222050079
3475.154,-0.00363289701928,0.0401718639656
3477.083,-0.00407169443581,0.043944331654
3479.011,-0.0045004186664,0.0451736219414
3480.94,-0.00491951444575,0.0423080720117
3482.868,-0.00532854725255,0.0428424459688
3484.797,-0.00572794139471,0.045719349461
3486.725,-0.00611728277772,0.0448350630264
3488.654,-0.00649697528269,0.0423293820349
3490.582,-0.00686662524191,0.0461049755906
3492.511,-0.0072266161097,0.050473356229
3494.439,-0.00757657464513,0.0510305319887
3496.368,-0.00791686387573,0.0496488966262
3498.296,-0.00824713098737,0.0517501128938
3500.225,-0.00856771858079,0.0511872475407
3502.153,-0.00887829426864,0.0481863909026
3504.082,-0.00917918022488,0.0501920175846
3506.01,-0.00947006448893,0.0569273575244
3507.939,-0.00975124880798,0.0596885782328
3509.867,-0.0100224416482,0.0619677565173
3511.796,-0.0102839243301,0.0623990562416
3513.724,-0.0105354257466,0.0609675494704
3515.653,-0.0107772067913,0.0585230877172
3517.581,-0.011009016784,0.0597995757651
3519.51,-0.0112310961915,0.0640467234026
3521.438,-0.0114432147604,0.0657907332077
3523.367,-0.0116455925307,0.0681643431624
3525.295,-0.0118380196758,0.0688935134593
3527.224,-0.0120206958089,0.064092362644
3529.152,-0.0121934315302,0.0654336013472
3531.081,-0.0123564060262,0.0657936849102
3533.009,-0.0125094503237,0.0658213880574
3534.938,-0.0126527231824,0.0635548762199
3536.866,-0.0127860760562,0.0631747347037
3538.795,-0.0129096472777,0.0625523239178
3540.723,-0.0130233087277,0.0638021422463
3542.652,-0.0131271783121,0.0624307262753
3544.58,-0.0132211483382,0.0543997594774
3546.509,-0.0133053162854,0.0501323657143
3548.437,-0.0133795948878,0.0533876814136
3550.366,-0.0134440611978,0.0518671886617
3552.294,-0.0134986483764,0.0523827078123
3554.223,-0.0135434130492,0.0620610517837
3556.151,-0.013578308804,0.0697124440511
3558.08,-0.0136033718396,0.0739773736591
3560.008,-0.0136185761706,0.0809995526186
3561.937,-0.0136239375691,0.0918878615557
3563.865,-0.0136194504763,0.0970087156133
3565.794,-0.0136051102376,0.0905580062246
3567.722,-0.013580931721,0.088316603408
3569.651,-0.0135468898451,0.0952233277304
3571.579,-0.0135030199047,0.0999019888727
3573.508,-0.0134492763916,0.0963513283475
3575.436,-0.0133857150274,0.0827908499713
3577.365,-0.0133122698772,0.0690476383195
3579.293,-0.0132290170892,0.0654477576128
3581.222,-0.0131358703017,0.0638060411296
3583.15,-0.01303292609,0.0594819304365
3585.079,-0.0129200776653,0.0537009328154
3587.007,-0.0127974420298,0.0534150504398
3588.936,-0.012664891968,0.0662765365651
3590.864,-0.0125225649086,0.0767012771294
3592.793,-0.0123703132096,0.0892009004935
3594.721,-0.0122082947265,0.109124295939
3596.65,-0.0120363413903,0.128060803131
3598.578,-0.0118546314834,0.129793072806
3600.507,-0.01166297651,0.10841168772
3602.435,-0.0114615751793,0.0810446136914
3604.364,-0.0112502185687,0.0602459731427
3606.292,-0.0110291258142,0.0444007016759
3608.221,-0.0107980675665,0.0363944488462
3610.149,-0.0105572833882,0.0341234412776
3612.078,-0.0103065235032,0.0297859534032
3614.006,-0.0100460479012,0.0285662136749
3615.935,-0.00977558637904,0.0258364374859
3617.863,-0.00949541935317,0.0207548957506
3619.792,-0.00920525619387,0.0183571817978
3621.72,-0.0089053977442,0.0259619023434
3623.649,-0.00859553294771,0.0283074504651
3625.577,-0.00827598307426,0.026662215764
3627.506,-0.00794641664059,0.0225769634919
3629.434,-0.00760717534335,0.0188105514679
3631.363,-0.00725790727249,0.0212860079497
3633.291,-0.00689897455146,0.0192112155299
3635.22,-0.00653000484341,0.0191257796337
3637.148,-0.00615138069859,0.0244173263167
3639.077,-0.00576270935336,0.0247053961016
3641.005,-0.00536439378475,0.0231779993644
3642.934,-0.00495602080233,0.0222202480337
3644.862,-0.00453801380993,0.0185413495018
3646.791,-0.00410993919033,0.00867629924289
3648.719,-0.00367224077414,0.00683154533292
3650.648,-0.00322446451735,0.0103744695714
3652.576,-0.00276707467737,0.016793659131
3654.505,-0.00229959678339,0.0164843738985
3656.433,-0.00182251551962,0.0147185025812
3658.362,-0.00133533598847,0.0167118648473
3660.29,-0.000838563300906,0.0202770551638
3662.219,-0.000331682132565,0.0211125372827
3664.147,0.000184781978788,0.020050232678
3666.076,0.000711364784312,0.0150260252895
3668.004,0.00124752031946,0.00832945329825
3669.933,0.00179380476217,0.00689213479105
3671.861,0.0023496517211,0.0105645300236
3673.79,0.002915637801,0.00263879462597
3675.718,0.00349117618372,-0.00349117618372
3677.647,0.0040768639008,0.00344208889411
3679.575,0.00467209370732,0.00590609288926
3681.504,0.00527748306158,0.00712876377962
3683.432,0.00589240429189,0.00861836089561
3685.361,0.00651749528334,0.00611113101809
3687.289,0.00715210793744,-0.001584534906
3689.218,0.00779690056607,-0.00685785275449
3691.146,0.00845120464396,-0.00221750404758
3693.075,0.00911569890977,0.00311365517898
3695.003,0.00978969441145,0.00362888438163
3696.932,0.0104738903145,0.00521447519651
3698.86,0.0111675772399,0.00452078827104
