baseline wavenumber (cm-1),baseline absorbance (cm-1),baseline-subtracted absorbance (cm-1)
3199.3790000000004,0.21733055695945325,1.304512053934559e-14
3201.308,0.21536938284140206,0.0029153336247861594
3203.236,0.21341907111441927,0.00786310315021227
3205.165,0.2114775986335573,0.011241788812111353
3207.093,0.20954697833036207,0.012771261839454984
3209.0209999999997,0.20762620118637898,0.012247649010730083
3210.95,0.2057142786072852,0.00858851124412488
3212.8779999999997,0.2038131928870932,0.0074227112875757395
3214.8070000000002,0.201920971945178,0.009721871479465682
3216.736,0.2000386043758695,0.012206381978118158
3218.664,0.19816705834404758,0.012627695522322568
3220.593,0.19630439241192477,0.015750388746470056
3222.5209999999997,0.19445253780389393,0.017282330284653508
3224.449,0.1926105263550717,0.017710084177628177
3226.3779999999997,0.19077741032471351,0.015777588159062883
3228.3059999999996,0.18895509029968238,0.01375264749471769
3230.235,0.18714167590650987,0.013621813429384177
3232.164,0.185338114885937,0.01464751131440667
3234.092,0.18354533454927946,0.0168519059237823
3236.0209999999997,0.18176147516589225,0.017978942301003525
3237.949,0.17998838625302582,0.017440775780735412
3239.877,0.178225140499368,0.016675804613337952
3241.8059999999996,0.1764708310177454,0.015073548846805285
3243.7340000000004,0.17472727668787869,0.015333240849774193
3245.663,0.17299266884344178,0.019497415054263667
3247.592,0.1712679143716116,0.020330978785165932
3249.52,0.16955389973011492,0.016310543310418785
3251.448,0.16784972824782685,0.014650150454285749
3253.377,0.1661545236777613,0.01355530296734131
3255.305,0.16447004361926432,0.01308140437426647
3257.2340000000004,0.16279454068638444,0.01863497752346091
3259.1620000000003,0.16112975205167857,0.022974299803168285
3261.091,0.15947395075598436,0.0231507535804151
3263.02,0.15782800283288978,0.020058143432146097
3264.948,0.1561927538865575,0.018159070635832053
3266.8759999999997,0.15456734809943384,0.017989591150540885
3268.805,0.1529509500781039,0.01895977467677329
3270.7329999999997,0.15134523571477132,0.01902085141754445
3272.6620000000003,0.1497485393306306,0.02080684326312257
3274.591,0.1481616963190895,0.023061335117279647
3276.5190000000002,0.14658552164412697,0.023813224944369937
3278.448,0.14501838026977154,0.021239640553032457
3280.3759999999997,0.14346189701860013,0.021222551581420085
3282.304,0.14191525692664086,0.023167422745854843
3284.2329999999997,0.14037766545405006,0.028342141480145827
3286.1609999999996,0.13885071678587835,0.030187790239290968
3288.09,0.13733282695047677,0.029013837357619865
3290.0190000000002,0.13582479048767482,0.027391008562158398
3291.947,0.1343273815078767,0.029538392271563296
3293.875,0.1328398156872872,0.032295891378314734
3295.804,0.13136132912624987,0.030162925397150514
3297.732,0.12989345472945146,0.025775664850049174
3299.6609999999996,0.12843466980560336,0.02236192374539228
3301.5890000000004,0.1269864868325925,0.024759894447100195
3303.518,0.12554740354592653,0.034674839454174544
3305.447,0.12411817363186728,0.037610048343266644
3307.375,0.12269953034723002,0.03167600791214528
3309.303,0.12129073022180137,0.02868410046656414
3311.232,0.11989105020950674,0.03540901043943695
3313.16,0.11850194150786919,0.03816609649880218
3315.0890000000004,0.11712196313275669,0.03144698460807016
3317.0170000000003,0.11575254585491024,0.026875403199977055
3318.946,0.11439226911698697,0.028199811141781855
3320.875,0.11304184575166332,0.03281854037994489
3322.803,0.11170196816218692,0.036126359948598474
3324.7309999999998,0.11037193373192267,0.03428314056303336
3326.66,0.1090510602683672,0.033964061534928064
3328.5879999999997,0.1077407172618905,0.035537221684839526
3330.5170000000003,0.1064395454355207,0.038190334277407645
3332.445,0.1051488938528351,0.039406877904973436
3334.3740000000003,0.10386742366364743,0.04296978951738967
3336.302,0.10259646350475293,0.04784658713711504
3338.2309999999998,0.10133469495275094,0.04003660293464417
3340.159,0.10008342621764754,0.03561327852307822
3342.0879999999997,0.09884135930283122,0.04115453173123326
3344.0159999999996,0.09760978199151538,0.043816104999286176
3345.945,0.09638741671388473,0.04579239729602125
3347.873,0.09517553082636354,0.043922624434932306
3349.802,0.09397286718591147,0.042171800761121786
3351.73,0.09278067272218138,0.04327869753961988
3353.659,0.09159771071892209,0.04437652358816371
3355.587,0.090425207678976,0.04957183063094009
3357.5159999999996,0.08926194731289883,0.05398900285388575
3359.4440000000004,0.08810913569674739,0.05392674826160698
3361.373,0.0869655769678559,0.05150139462822212
3363.302,0.08583187161156403,0.053892226235398466
3365.23,0.08470859968378619,0.053595635634115346
3367.158,0.08359517091521695,0.04738586112764162
3369.087,0.08249101546069326,0.04663553866848899
3371.015,0.08139727811591513,0.05023161099759946
3372.9440000000004,0.08031282429857356,0.05123470425697077
3374.8720000000003,0.07923877837758653,0.0524369317204626
3376.801,0.07817402619743063,0.052540266736967406
3378.7290000000003,0.07711967170023115,0.05286996743855382
3380.658,0.07607462115726094,0.05259494318116015
3382.586,0.0750399580838561,0.05083363940932087
3384.515,0.07401460917806801,0.04865859409697493
3386.4429999999998,0.07299963752845073,0.05307627473274404
3388.3720000000003,0.07199399025985187,0.0586129540442015
3390.3,0.07099871003402569,0.05419233413862162
3392.2290000000003,0.07001276440260895,0.051223867559384365
3394.157,0.06903717560057387,0.05278446596416886
3396.086,0.06807093160634281,0.0521829347638179
3398.014,0.06711503422809528,0.05567001580728326
3399.9429999999998,0.0661684918710499,0.06690019305768757
3401.8709999999996,0.06523228591659702,0.07108677301395994
3403.8,0.06430544519673376,0.06914954823296399
3405.728,0.06338893066606843,0.07124163134747649
3407.657,0.0624817915833944,0.07266325036545832
3409.585,0.061584968476520174,0.06955923449527807
3411.514,0.06069753103102826,0.07235755337208505
3413.442,0.05982039934794514,0.07492115023256632
3415.3709999999996,0.05895266353963535,0.07427197509374178
3417.2990000000004,0.058095223280346886,0.07406725523981889
3419.228,0.057247189109222774,0.07566030103532387
3421.156,0.056409440273721856,0.07943176562944199
3423.085,0.05558110773977987,0.0783269585697319
3425.013,0.05476305032807005,0.0782574692312143
3426.942,0.05395441943131729,0.08207033544586859
3428.87,0.053156053443398577,0.09105244751687636
3430.7990000000004,0.05236712418382794,0.0911769574900829
3432.7270000000003,0.05158844961970033,0.0875394337321646
3434.656,0.050819221997311814,0.09059038580618561
3436.5840000000003,0.0500602388569753,0.09680252774567302
3438.513,0.04931071287177602,0.10093685106231878
3440.441,0.04857142115522706,0.09809122920361252
3442.37,0.04784159680721345,0.10101689909898284
3444.298,0.04712199651445559,0.10096758197538572
3446.2270000000003,0.04641187380362055,0.09949745097147294
3448.155,0.045711964934657345,0.10581650469033002
3450.0840000000003,0.04502154386101154,0.10937731391721547
3452.012,0.04434132641583233,0.11074361748389475
3453.941,0.043670606979372195,0.1071580243761317
3455.869,0.04301008095798764,0.10696244001643873
3457.798,0.04235906315870963,0.11219314041957804
3459.7259999999997,0.04171822856111618,0.11491934345950444
3461.655,0.041086912399023845,0.11412941732906673
3463.583,0.04046576922522149,0.11569315122358068
3465.512,0.039854154700311284,0.1133181641109694
3467.44,0.039252702950300034,0.11224074696378061
3469.369,0.0386607900625755,0.11691614312250484
3471.297,0.0380790297363518,0.11925691992502493
3473.2259999999997,0.03750681848581294,0.11746412056199865
3475.1540000000005,0.036944749583383896,0.11670854567589034
3477.083,0.03639223997002716,0.1159670089938867
3479.011,0.035849862491385664,0.11729451737316501
3480.94,0.03531705451521816,0.11841065194389433
3482.868,0.034794368460367764,0.11927451357743674
3484.797,0.03428126212138238,0.11814227472285091
3486.725,0.03377826749032309,0.12052945008776242
3488.6540000000005,0.033284862788523384,0.12166721443779827
3490.5820000000003,0.03280155958125164,0.12049508451053043
3492.511,0.03232785651664116,0.1153231896776376
3494.4390000000003,0.031864244733156966,0.11344323530323239
3496.368,0.03141024330572861,0.11358163478989455
3498.296,0.030966322946042624,0.11560715324924697
3500.225,0.030532023155796395,0.11136305922568546
3502.153,0.030107794219897954,0.10524959989715449
3504.0820000000003,0.029693196066837402,0.10035077441734333
3506.01,0.029288658554730063,0.1024392753379213
3507.9390000000003,0.028893762038855186,0.10707177925296729
3509.867,0.02850891595053895,0.11343979020532882
3511.796,0.028133721071842643,0.11828778908685542
3513.724,0.02776856640732106,0.11946942510182681
3515.653,0.02741307316581043,0.12154838948454838
3517.5809999999997,0.027067609925076397,0.1256841691106054
3519.51,0.026731818320754996,0.12593665433667955
3521.438,0.02640604650380851,0.13460265156553344
3523.367,0.026089956536672787,0.1407169574429087
3525.295,0.025783876143517404,0.13393356042779564
3527.224,0.025487487813563803,0.12509443374713566
3529.152,0.02520109884419952,0.11604539362522329
3531.0809999999997,0.02492441215143515,0.11436610639703346
3533.009,0.024657714605858416,0.11806598902297005
3534.938,0.02440072955027972,0.11560616926706588
3536.866,0.02415372342849409,0.11228493521903446
3538.795,0.023916440010097517,0.10545639937128326
3540.723,0.02368912531210654,0.10399155799932577
3542.652,0.02347154353089209,0.1050940584098741
3544.58,0.023263920256688664,0.10894801242298383
3546.509,0.02306604011265989,0.106513056218079
3548.437,0.022878108262251118,0.09624283583963911
3550.366,0.02269992975540447,0.09280123268268306
3552.2940000000003,0.022531689328786797,0.09669281284446701
3554.223,0.022373212459125824,0.10190066806245507
3556.151,0.0222246634562957,0.10684007929110145
3558.08,0.022085888223820405,0.11667373979599158
3560.008,0.021957030644781383,0.13544533971810147
3561.937,0.02183795704948821,0.14967813008282757
3563.865,0.02172879089424029,0.15321219262946334
3565.7940000000003,0.021629418936136346,0.15361096315220893
3567.722,0.02153994420467953,0.16640473890458965
3569.651,0.021460273883754155,0.17678482365996362
3571.579,0.02139049057608844,0.18454529735477176
3573.508,0.021330521892355847,0.178578600719592
3575.4359999999997,0.021280430008474127,0.1568421420121465
3577.365,0.02124016296192721,0.13210955400966887
3579.2929999999997,0.021209762501840146,0.10852373593139547
3581.222,0.0211891970924718,0.09282470162379222
3583.15,0.021178488056175837,0.08733889797435078
3585.079,0.02117762428399672,0.07977314899003542
3587.007,0.021186606671488306,0.07634164562811746
3588.9359999999997,0.021205444536491314,0.08695006946330651
3590.864,0.021234118347781106,0.09629413395182466
3592.7929999999997,0.021272657849966237,0.11012656382192296
3594.7209999999995,0.021321023085043578,0.12711363778627957
3596.65,0.021379264224414385,0.14527244910824505
3598.578,0.021447320883282828,0.1508909688165049
3600.507,0.02152526365983576,0.1342295933097387
3602.435,0.021613011742495303,0.10410679013762195
3604.364,0.021710656156237462,0.07504730401762283
3606.292,0.021818095662684556,0.05818271298989808
3608.2209999999995,0.02193544171361239,0.05563076671659077
3610.1490000000003,0.022062572643850586,0.052039570285493386
3612.078,0.022199620331956993,0.04117802042413317
3614.006,0.022346442685989842,0.04092440538840618
3615.935,0.022503192011281925,0.04006493696880499
3617.863,0.022669705789102323,0.039454574004691254
3619.792,0.022846156751587188,0.04009117267325864
3621.72,0.023032361953195135,0.044434533831703274
3623.6490000000003,0.02322851455285857,0.04501726529147579
3625.577,0.023434411178261172,0.04161779745410513
3627.506,0.023650265415110283,0.029945307211999783
3629.434,0.023875853464300434,0.03534819384187564
3631.363,0.02411140933833522,0.039119915841084554
3633.2909999999997,0.024356688811320026,0.03382899803796734
3635.22,0.024611946322536937,0.03394187961499465
3637.1479999999997,0.02487691721930929,0.03245432709485223
3639.077,0.02515187636771543,0.027661779752773785
3641.005,0.025436538688278887,0.024341991585652173
3642.934,0.02573119947386715,0.02232682134893685
3644.862,0.026035553218221708,0.015352903266161178
3646.7909999999997,0.026349915640992094,0.004662163606960978
3648.719,0.026673960809137753,0.006053573811300922
3650.6479999999997,0.027008024869093816,0.01845381683716313
3652.5759999999996,0.027351761461030577,0.016084405525727735
3654.505,0.027705527158172316,0.0034881451353685755
3656.433,0.02806895517390018,0.0051635324436071495
3658.362,0.02844242250822404,0.012189034077240424
3660.29,0.028825541947743005,0.012840080209337745
3662.219,0.029218710919252544,0.011847548051737017
3664.147,0.029621521782559057,0.00986922925352704
3666.0759999999996,0.030034392391257825,0.0069944158569985315
3668.0040000000004,0.03045689467835544,0.0013483211308025211
3669.933,0.03088946692423633,0.005812291895130883
3671.861,0.031331660635121494,0.017467490279666736
3673.79,0.031783934518191614,0.007928943274186806
3675.718,0.03224581965287143,0.01564137331185106
3677.647,0.03271779517312012,0.018856550323695792
3679.575,0.03319937173159104,0.01530204341042854
3681.5040000000004,0.03369104888902541,0.011651011153428814
3683.4320000000002,0.03419231687128388,0.004174103830222237
3685.361,0.03470369566590392,0.0008905123599729226
3687.289,0.035224655071957045,-0.0033261915118640573
3689.218,0.03575573550375921,0.0005379570060962124
3691.1459999999997,0.036296386333599884,0.0051763216417362035
3693.075,0.03684716840258773,0.0052165129882947026
3695.0029999999997,0.03740751065622305,-0.00565374536763516
3696.9320000000002,0.03797799436239657,-0.0044844130422712625
3698.86,0.03855802803981945,-0.005064446719694138
