baseline wavenumber (cm-1),baseline absorbance (cm-1),baseline-subtracted absorbance (cm-1)
3199.379,0.144008844638,1.34614541736e-14
3201.308,0.142616169241,0.000553142393787
3203.236,0.141231248463,0.00117171322739
3205.165,0.139852645664,0.00215518815812
3207.093,0.138481790188,0.00380876879262
3209.021,0.137117965541,0.00599281986264
3210.95,0.135760469815,0.00647985162445
3212.878,0.13441071047,0.00564058842784
3214.807,0.133067287342,0.00426597860349
3216.736,0.131730902337,0.00417701234998
3218.664,0.13040224277,0.00402351281476
3220.593,0.129079930363,0.00439495086612
3222.521,0.127765336099,0.00299499949226
3224.449,0.126457772662,0.00180605024298
3226.378,0.125156567328,0.00277975128129
3228.306,0.123863069194,0.00352270862863
3230.235,0.122575936458,0.00422725771991
3232.164,0.121295841845,0.00551437750222
3234.092,0.120023443488,0.00518958592629
3236.021,0.118757421473,0.00526193564776
3237.949,0.11749908842,0.00494602428615
3239.877,0.116247786194,0.00487123735784
3241.806,0.115002871252,0.00591793133584
3243.734,0.113765634329,0.00705797832649
3245.663,0.112534791985,0.00707902586641
3247.592,0.111310987764,0.00632041828112
3249.52,0.110094850618,0.00591889647586
3251.448,0.108885744301,0.0063537179455
3253.377,0.107683047152,0.00565486854579
3255.305,0.106488006137,0.00613086579227
3257.234,0.105299381587,0.008295028602
3259.162,0.104118405875,0.00926924195688
3261.091,0.102943853923,0.00801237775641
3263.02,0.101776340093,0.00631518927073
3264.948,0.100616464159,0.00653829172922
3266.876,0.0994636190521,0.00706099431088
3268.805,0.0983172122957,0.00565832596366
3270.733,0.0971784324917,0.00588070022837
3272.662,0.0960460983333,0.00781915993008
3274.591,0.0949208022982,0.00940993660808
3276.519,0.0938031222717,0.00712005573299
3278.448,0.0926918988345,0.00762089809259
3280.376,0.0915882841107,0.00878056254858
3282.304,0.0904917002148,0.00803892750175
3284.233,0.0894015838504,0.00840843333348
3286.161,0.0883190652572,0.0101720901051
3288.09,0.0872430214908,0.00979377220171
3290.019,0.0861740158476,0.00961431933886
3291.947,0.0851125970319,0.0104713512143
3293.875,0.0840582090442,0.0113049265062
3295.804,0.0830103104737,0.0122627613953
3297.732,0.0819699877887,0.0111988689787
3299.661,0.0809361618162,0.0115596432985
3301.589,0.0799099044339,0.0132812913611
3303.518,0.0788901510594,0.0139870348296
3305.447,0.0778774358082,0.0137971826089
3307.375,0.0768722782033,0.0129988427913
3309.303,0.0758741514264,0.0137942504739
3311.232,0.0748825432479,0.0140566561861
3313.16,0.0738984817737,0.0137946345712
3315.089,0.0729209461932,0.0125486787942
3317.017,0.0719509500217,0.0134506976079
3318.946,0.0709874870392,0.0147052249794
3320.875,0.0700310621799,0.0150518752506
3322.803,0.0690821657858,0.0156495637199
3324.731,0.0681403002198,0.0172853037426
3326.66,0.0672049824332,0.0190577285746
3328.588,0.0662771821699,0.019887782957
3330.517,0.0653559369813,0.0188664424789
3332.445,0.0644422020206,0.0181804099272
3334.374,0.0635350294301,0.0169662846304
3336.302,0.0626353597721,0.0176435748281
3338.231,0.0617422597795,0.0183763594462
3340.159,0.0608566554243,0.0202036397339
3342.088,0.0599776280297,0.0204532321745
3344.016,0.0591060889772,0.0195590277721
3345.945,0.0582411341805,0.0185331001265
3347.873,0.0573836604307,0.0203451882502
3349.802,0.0565327782321,0.0200050768169
3351.73,0.055689369785,0.0207084367449
3353.659,0.0548525601844,0.0223780068833
3355.587,0.0540232170399,0.0237667859925
3357.516,0.0532004800373,0.0243253463046
3359.444,0.0523852021956,0.0257360956918
3361.373,0.0515765377909,0.0282142738941
3363.302,0.0507749115096,0.0282442434485
3365.23,0.0499807334453,0.0263029014481
3367.158,0.049193586209,0.0249598050778
3369.087,0.0484130670003,0.0233355936688
3371.015,0.0476399850668,0.0214151549312
3372.944,0.0468735384561,0.02268726211
3374.872,0.0461145218252,0.0265154185367
3376.801,0.0453621478125,0.0277769909725
3378.729,0.0446171964843,0.0264284923866
3380.658,0.0438788950696,0.0249789336982
3382.586,0.0431480090442,0.0245489484005
3384.515,0.0424237802275,0.0248870961498
3386.443,0.0417069595047,0.0246065955342
3388.372,0.040996803286,0.0245854265735
3390.3,0.0402940478659,0.0241816925566
3392.229,0.0395979642452,0.0255309147602
3394.157,0.0389092741279,0.0278198777977
3396.086,0.0382272631051,0.028911370272
3398.014,0.0375526382905,0.0305734104308
3399.943,0.0368846998657,0.0296909091507
3401.871,0.0362241403538,0.0304622540665
3403.8,0.035570274527,0.0331695415045
3405.728,0.0349237803178,0.0356378289008
3407.657,0.034283987089,0.0351553639673
3409.585,0.0336515581825,0.0327472086223
3411.514,0.0330258375517,0.0328958747701
3413.442,0.032407473948,0.0354113878735
3415.371,0.0317958259151,0.0337627508563
3417.299,0.0311915276141,0.0325128593262
3419.228,0.0305939521792,0.0361512717164
3421.156,0.0300037191809,0.0362068337353
3423.085,0.029420216344,0.0325667441331
3425.013,0.0288440486484,0.0320367761773
3426.942,0.0282746184095,0.0346760537829
3428.87,0.0277125160166,0.0369828241229
3430.799,0.0271571583757,0.0371538696239
3432.727,0.0266091212855,0.036224650068
3434.656,0.0260678362426,0.0350189928285
3436.584,0.025533864455,0.0365098027844
3438.513,0.0250066520102,0.0356464865727
3440.441,0.0244867455253,0.0349456814432
3442.37,0.0239736056784,0.0363901869022
3444.298,0.0234677644963,0.0382343481086
3446.227,0.0229686972474,0.0380440895715
3448.155,0.022476921368,0.0370538074301
3450.084,0.0219919267171,0.0358314837752
3452.012,0.0215142161404,0.0372415202389
3453.941,0.0210432940875,0.0408291409676
3455.869,0.0205796488134,0.0425920887788
3457.798,0.0201227993585,0.040460845643
3459.726,0.0196732193872,0.0388703973115
3461.655,0.0192304425303,0.039704410396
3463.583,0.0187949278617,0.0425620417128
3465.512,0.0183662236027,0.0424472303546
3467.44,0.0179447742368,0.0433013088522
3469.369,0.0175301425759,0.0453092388049
3471.297,0.0171227585127,0.0486171080596
3473.226,0.0167221994497,0.0503664996304
3475.154,0.0163288806893,0.0500527022482
3477.083,0.0159423942243,0.0483839981744
3479.011,0.0155631407665,0.0487720962698
3480.94,0.0151907268995,0.0492573677128
3482.868,0.0148255387445,0.0509076059033
3484.797,0.0144671974755,0.0526488441702
3486.725,0.0141160746231,0.0541951049988
3488.654,0.0137718059521,0.0537989006081
3490.582,0.0134347484024,0.0534642205655
3492.511,0.0131045523294,0.0534100539579
3494.439,0.0127815600825,0.0536735091584
3496.368,0.0124654366074,0.0512143875106
3498.296,0.0121565096632,0.0504889972609
3500.225,0.0118544587862,0.0512194823843
3502.153,0.0115595971447,0.0531906808297
3504.082,0.0112716188656,0.0549525295222
3506.01,0.0109908225268,0.0569863330378
3507.939,0.0107169168457,0.0599899465931
3509.867,0.0104501858096,0.0646352281194
3511.796,0.0101903527265,0.065773308448
3513.724,0.00993768699313,0.0648974995024
3515.653,0.00969192650804,0.0675784666993
3517.581,0.00945332607735,0.0725129632181
3519.51,0.00922163819025,0.0747151858267
3521.438,0.00899710306227,0.0780028463969
3523.367,0.00877948777315,0.0813250811139
3525.295,0.00856901794788,0.0826843430144
3527.224,0.00836547525675,0.0820024111276
3529.152,0.00816907073419,0.0805366302665
3531.081,0.00797960064105,0.0777372193327
3533.009,0.0077972614212,0.0741941466451
3534.938,0.00762186392605,0.0714734054563
3536.866,0.0074535900089,0.0688220594402
3538.795,0.00729226511174,0.0675262429242
3540.723,0.0071380564973,0.070573658857
3542.652,0.00699080419813,0.0721563705719
3544.58,0.00685066088639,0.0712473882393
3546.509,0.00671748118521,0.0668514564475
3548.437,0.00659140317619,0.0635078083875
3550.366,0.00647229607299,0.0650771328161
3552.294,0.00636028336667,0.066761418847
3554.223,0.00625524886147,0.0680083718805
3556.151,0.00615730145786,0.0770771572503
3558.08,0.00606633955065,0.0907693018119
3560.008,0.00598245744974,0.10419236313
3561.937,0.00590556814052,0.114535299139
3563.865,0.00583575134232,0.1201541405
3565.794,0.00577293463109,0.120065941342
3567.722,0.0057171831356,0.117089296193
3569.651,0.00566843902235,0.12473017616
3571.579,0.00562675282957,0.133873398793
3573.508,0.00559208131431,0.12815753963
3575.436,0.00556446042424,0.110879439303
3577.365,0.00554386150697,0.0913318081584
3579.293,0.0055303059196,0.0760942265781
3581.222,0.00552377960032,0.0659416505018
3583.15,0.00552428931566,0.0605767417164
3585.079,0.00553183559438,0.0561838219413
3587.007,0.00554641061242,0.0553177862945
3588.936,0.00556802948912,0.061511218464
3590.864,0.00559666980988,0.0742436718458
3592.793,0.00563236128457,0.088178211848
3594.721,0.00567506690803,0.108375423338
3596.65,0.00572483098071,0.127175553129
3598.578,0.00578160190688,0.134223452172
3600.507,0.00584543857755,0.115465286177
3602.435,0.00591627480643,0.0803896991145
3604.364,0.00599418407508,0.0544077162585
3606.292,0.00607908560667,0.0429067124324
3608.221,0.00617106747331,0.0322087970774
3610.149,0.00627003430761,0.0254168149798
3612.078,0.00637608877224,0.0238763119151
3614.006,0.00648912090924,0.02015350519
3615.935,0.00660924797186,0.020770111171
3617.863,0.00673634541157,0.0202648170265
3619.792,0.00687054507218,0.0170722427576
3621.72,0.0070117078146,0.0195306453644
3623.649,0.0071599800732,0.0217332777859
3625.577,0.00731520811832,0.0217759169196
3627.506,0.00747755297492,0.0190284108379
3629.434,0.00764684632275,0.0154281562043
3631.363,0.00782326377733,0.0215382039271
3633.291,0.00800662242787,0.0230166768747
3635.22,0.00819711248043,0.0192302604095
3637.148,0.00839453643368,0.0184223037564
3639.077,0.00859909908424,0.0205084011685
3641.005,0.00881058834019,0.0217295410442
3642.934,0.00902922358874,0.0185935905222
3644.862,0.0092547781474,0.0158286141502
3646.791,0.00948748599393,0.00936099272839
3648.719,0.0097271058553,0.00466226036323
3650.648,0.00997388629983,0.00707791800625
3652.576,0.0102275714639,0.0106837799967
3654.505,0.0104884245064,0.011383707304
3656.433,0.0107561749732,0.00647757616396
3658.362,0.0110311006137,0.0105210574779
3660.29,0.0113129163832,0.0132076537169
3662.219,0.0116019146217,0.00966691182125
3664.147,0.0118977956939,0.0104889424038
3666.076,0.0122008665304,0.0122161960391
3668.004,0.0125108129053,0.0102820204112
3669.933,0.0128279563397,0.00454594439815
3671.861,0.0131519680174,0.00610963109312
3673.79,0.0134831840498,0.00729731731478
3675.718,0.0138212610301,-0.00639540436382
3677.647,0.0141665496606,-0.00559685391613
3679.575,0.0145186919436,-0.00065388854728
3681.504,0.0148780531721,0.00199978974718
3683.432,0.0152442607578,0.00509683900972
3685.361,0.0156176945842,0.00298459996748
3687.289,0.0159979674727,-0.00217597212242
3689.218,0.0163854738971,-0.00998225950307
3691.146,0.0167798120882,-0.00741450328403
3693.075,0.0171813911106,0.000841352243247
3695.003,0.0175897946045,0.0068041708256
3696.932,0.0180054462249,0.0071776125035
3698.86,0.0184279150215,0.00675514370693
