baseline wavenumber (cm-1),baseline absorbance (cm-1),baseline-subtracted absorbance (cm-1)
3199.379,0.0370685678339,4.21884749358e-15
3201.308,0.0361130618584,0.00521880366194
3203.236,0.0351650838718,0.00894094814054
3205.165,0.0342236504943,0.0118796555797
3207.093,0.0332897378103,0.00628704278661
3209.021,0.0323628559543,-0.0035486391374
3210.95,0.0314425296495,-0.00241478099503
3212.878,0.0305297130963,0.00511892043975
3214.807,0.0296234593895,0.00756288296044
3216.736,0.0287242438059,0.00331147297607
3218.664,0.0278325270301,-0.00174145273079
3220.593,0.0269473840445,0.0002861380076
3222.521,0.0260697325714,0.00546692780463
3224.449,0.0251991119263,0.0089188023814
3226.378,0.0243350760134,0.00687377280184
3228.306,0.023478520671,0.00408910356887
3230.235,0.0226285573561,0.000686253575567
3232.164,0.0217856321646,0.00152638293294
3234.092,0.0209501765996,0.00320338459426
3236.021,0.020121324006,0.00663061560401
3237.949,0.0192999337437,0.00748625483535
3239.877,0.0184855743094,0.00960626884433
3241.806,0.0176778287885,0.0110280494529
3243.734,0.0168775346569,0.00989502423037
3245.663,0.016083861734,0.00447181031467
3247.592,0.0152972269344,0.00603009535544
3249.52,0.0145180325802,0.0113298041431
3251.448,0.013745869054,0.0144857658101
3253.377,0.0129803413271,0.0119448701079
3255.305,0.0122222431036,0.00752333598355
3257.234,0.0114707879747,0.00782571024299
3259.162,0.0107267550539,0.0110017694446
3261.091,0.00998937252295,0.0141683824222
3263.02,0.00925902811529,0.0119683431016
3264.948,0.00853609497194,0.00816517014304
3266.876,0.0078201926566,0.00646372430713
3268.805,0.00711095532162,0.00298060824866
3270.733,0.00640911830899,0.00901165473917
3272.662,0.005713953572,0.0162424314144
3274.591,0.0050258269583,0.0167390433849
3276.519,0.00434508972307,0.0193433145546
3278.448,0.00367103570736,0.0176999714919
3280.376,0.00300436377485,0.0118967335901
3282.304,0.00234472267034,0.014897885843
3284.233,0.00169177572732,0.016769467021
3286.161,0.00104619992551,0.0118202290952
3288.09,0.000407325580481,0.00449237386734
3290.019,-0.000224510641262,0.00671469027361
3291.947,-0.000848986665657,0.0157804887276
3293.875,-0.00146643186205,0.0170248997449
3295.804,-0.0020771610111,0.0200477348561
3297.732,-0.00268054090478,0.0213864191462
3299.661,-0.00327719745584,0.0169645532956
3301.589,-0.00386651204682,0.0170348911619
3303.518,-0.00444909599989,0.0219338936514
3305.447,-0.00502464182968,0.0222155274102
3307.375,-0.00559285664324,0.0234966799465
3309.303,-0.0061540406288,0.0285203648058
3311.232,-0.0067084793859,0.0274591608705
3313.16,-0.00725559806875,0.0207413043664
3315.089,-0.00779596422786,0.0187678660941
3317.017,-0.008329017608,0.0227506294064
3318.946,-0.00885531116912,0.0254922720973
3320.875,-0.00937456660695,0.0265605594776
3322.803,-0.00988652020968,0.0285756234459
3324.731,-0.0103914429844,0.0270049888011
3326.66,-0.0108895913495,0.0259189476087
3328.588,-0.0113804488216,0.0315869910736
3330.517,-0.0118645245887,0.0323450585931
3332.445,-0.012341316758,0.0268048660696
3334.374,-0.0128113199272,0.0225677328719
3336.302,-0.0132740467938,0.0205512537554
3338.231,-0.013729977365,0.0233371626589
3340.159,-0.0141786389289,0.0293299634553
3342.088,-0.0146204969021,0.0395257880183
3344.016,-0.0150550931632,0.0428642075828
3345.945,-0.0154828785384,0.0357932161354
3347.873,-0.0159034094969,0.0337624994529
3349.802,-0.0163171222741,0.0352540063169
3351.73,-0.0167235879299,0.0382305425675
3353.659,-0.0171232281091,0.0348994914767
3355.587,-0.0175156284622,0.0271472773054
3357.516,-0.0179011960434,0.0257844000694
3359.444,-0.0182795310938,0.0312721221331
3361.373,-0.018651026077,0.0385772859498
3363.302,-0.019015482937,0.0383291056391
3365.23,-0.0193727182099,0.0329950709044
3367.158,-0.0197229226549,0.0303754004629
3369.087,-0.0200662724421,0.0317430740078
3371.015,-0.0204024115844,0.0363732650128
3372.944,-0.0207316887736,0.0345256357926
3374.872,-0.0210537626132,0.0361376376394
3376.801,-0.0213689672044,0.0382956464524
3378.729,-0.0216769757413,0.0362520089418
3380.658,-0.0219781077346,0.0380387773368
3382.586,-0.0222720509687,0.0460555136093
3384.515,-0.022559110364,0.044126175437
3386.443,-0.0228389882954,0.035828084542
3388.372,-0.0231119750927,0.0330406813204
3390.3,-0.0233777877214,0.0346967225086
3392.229,-0.0236367019207,0.0389900254686
3394.157,-0.0238884492467,0.0408490279844
3396.086,-0.0241332908481,0.0397067863398
3398.014,-0.0243709728713,0.0467156293332
3399.943,-0.0246017418747,0.0477928371427
3401.871,-0.0248253585953,0.0384872024479
3403.8,-0.0250420550006,0.0371661900394
3405.728,-0.0252516064185,0.0436656694646
3407.657,-0.0254542302259,0.0472694255848
3409.585,-0.025649716341,0.0458394835878
3411.514,-0.0258382675504,0.0482290552767
3413.442,-0.0260196883629,0.0545543217591
3415.371,-0.0261941669742,0.0484182530859
3417.299,-0.026361522484,0.0436946461298
3419.228,-0.0265219284974,0.046364313344
3421.156,-0.0266752187044,0.0467321838264
3423.085,-0.0268215521198,0.0522213564115
3425.013,-0.0269607770242,0.0555537734595
3426.942,-0.0270930378416,0.0568973294471
3428.87,-0.0272181974432,0.0590323443643
3430.799,-0.0273363856627,0.057681321708
3432.727,-0.0274474799616,0.0536556298183
3434.656,-0.027551595583,0.0523342194734
3436.584,-0.0276486245792,0.0523983974177
3438.513,-0.0277386676027,0.0509828837207
3440.441,-0.0278216312962,0.0577482406483
3442.37,-0.0278976017217,0.0576942047831
3444.298,-0.0279665001125,0.0574698900614
3446.227,-0.0280283979399,0.05721271331
3448.155,-0.028083231028,0.0537675114502
3450.084,-0.0281310562575,0.057621165994
3452.012,-0.0281718240429,0.0640147680563
3453.941,-0.0282055766744,0.0627065202684
3455.869,-0.0282322791571,0.0615670104075
3457.798,-0.0282519591906,0.0638642468819
3459.726,-0.0282645963705,0.0622483106363
3461.655,-0.0282702038061,0.0520812753095
3463.583,-0.0282687756833,0.0532376720278
3465.512,-0.0282603105208,0.0627413337962
3467.44,-0.0282448170954,0.0647210175567
3469.369,-0.0282222793349,0.0614563605539
3471.297,-0.0281927206068,0.0565508669687
3473.226,-0.0281561102483,0.0485045410864
3475.154,-0.0281124862175,0.0498067617469
3477.083,-0.028061803261,0.0542426937342
3479.011,-0.0280041139275,0.056948337035
3480.94,-0.027939358373,0.0615327042876
3482.868,-0.0278676037368,0.0612959954331
3484.797,-0.0277887755843,0.0548084163196
3486.725,-0.0277029556454,0.0509527634318
3488.654,-0.027610054895,0.0469757500092
3490.582,-0.0275101696533,0.0426401759439
3492.511,-0.0274031963049,0.0393658719182
3494.439,-0.0272892457605,0.0471550457185
3496.368,-0.0271681998141,0.050601134741
3498.296,-0.027040183967,0.04880994702
3500.225,-0.0269050654226,0.0523793088
3502.153,-0.0267629842728,0.0563208929888
3504.082,-0.0266137931304,0.0492387319715
3506.01,-0.0264576466779,0.0457111589446
3507.939,-0.0262943829375,0.0519583935617
3509.867,-0.0261241711823,0.0549611041522
3511.796,-0.025946834844,0.0488884019091
3513.724,-0.025762557786,0.0438893488673
3515.653,-0.0255711488497,0.0452891190741
3517.581,-0.0253728064891,0.0490011003312
3519.51,-0.0251673249547,0.0452948848904
3521.438,-0.0249549172914,0.0440354373166
3523.367,-0.0247353631591,0.0431088866091
3525.295,-0.024508890193,0.0391789817566
3527.224,-0.0242752634627,0.0396722719201
3529.152,-0.024034725194,0.0378723571224
3531.081,-0.0237870258657,0.0348878855847
3533.009,-0.0235324222942,0.0433125998297
3534.938,-0.0232706503679,0.0493009152732
3536.866,-0.0230019814937,0.0436541098225
3538.795,-0.0227261369695,0.0398991991069
3540.723,-0.0224434027926,0.0387927422768
3542.652,-0.0221534856703,0.0429883916604
3544.58,-0.0218566861907,0.0465019647257
3546.509,-0.0215526964705,0.0397609162231
3548.437,-0.0212418316882,0.0345989296123
3550.366,-0.02092376937,0.0397268028501
3552.294,-0.0205988392849,0.044738770787
3554.223,-0.0202667043687,0.0396135276021
3556.151,-0.019927708981,0.0376015749208
3558.08,-0.0195815014668,0.0481025051713
3560.008,-0.0192284407764,0.0568041030396
3561.937,-0.0188681606642,0.0561083228226
3563.865,-0.018501034671,0.0566288741901
3565.794,-0.0181266819608,0.0545427719867
3567.722,-0.017745490665,0.0355790686338
3569.651,-0.0173570653568,0.0362191608346
3571.579,-0.0169618087583,0.0405719296781
3573.508,-0.0165593108521,0.0379310170099
3575.436,-0.0161499889508,0.0329826582736
3577.365,-0.0157334184467,0.0341051945004
3579.293,-0.0153100312427,0.033426687425
3581.222,-0.0148793881406,0.0327912494672
3583.15,-0.0144419356339,0.0359625199633
3585.079,-0.0139972199338,0.0438895803168
3587.007,-0.0135457021244,0.0439297798486
3588.936,-0.0130869138263,0.0398944206411
3590.864,-0.0126213307142,0.053115144931
3592.793,-0.0121484698181,0.072667796022
3594.721,-0.0116688214033,0.0927710790394
3596.65,-0.0111818879092,0.10360447825
3598.578,-0.0106881741917,0.109711729095
3600.507,-0.0101871680996,0.0925237865381
3602.435,-0.00967938907937,0.0639164758201
3604.364,-0.0091643103893,0.0490458369148
3606.292,-0.00864246606637,0.0416235242896
3608.221,-0.00811331477831,0.0297272100743
3610.149,-0.00757740515268,0.0158838285818
3612.078,-0.00703418126663,0.017711122624
3614.006,-0.00648420633829,0.0155385154178
3615.935,-0.00592690985425,0.0246757740466
3617.863,-0.0053628696232,0.0232848658488
3619.792,-0.00479150054118,0.0055474242149
3621.72,-0.00421339500742,0.0123845699567
3623.649,-0.0036279533274,0.0205794456039
3625.577,-0.00303578249094,0.0224203494861
3627.506,-0.00243626821293,0.0262773949341
3629.434,-0.00183003207376,0.00634425588029
3631.363,-0.00121644519777,0.0123131111655
3633.291,-0.000596143755891,0.0185925790673
3635.22,3.15157180957e-05,0.0166666040834
3637.148,0.00066588246268,0.0196528426369
3639.077,0.00130761453465,0.00978206184754
3641.005,0.00195604658195,0.00949184605802
3642.934,0.00261185125191,0.0159339654812
3644.862,0.00327434860191,0.0267522118231
3646.791,0.00394422586986,0.0289512099308
3648.719,0.00462078852257,0.014954244678
3650.648,0.00530473838851,0.00347732633505
3652.576,0.00599536634393,0.0092230582035
3654.505,0.00669338880786,0.0213065412963
3656.433,0.00739808206598,0.00272318724275
3658.362,0.0081101771279,-0.00281381870195
3660.29,0.00882893568873,0.0130135190537
3662.219,0.00955510334864,0.0201705554198
3664.147,0.0102879272122,0.0202754333805
3666.076,0.0110281674701,0.0196620540998
3668.004,0.0117750566363,0.0208254186555
3669.933,0.0125293694922,0.00611849518942
3671.861,0.0132903239612,0.000864635149763
3673.79,0.014058709415,0.024476972419
3675.718,0.0148337291867,0.00531235315062
3677.647,0.0156161872386,-0.00226433150361
3679.575,0.0164052723129,0.00125321653868
3681.504,0.0172018029628,-0.00205781750112
3683.432,0.0180049533399,0.00106962553761
3685.361,0.0188155565877,0.00732968699935
3687.289,0.0196327722675,0.0164376827545
3689.218,0.0204574481133,-0.00560003565788
3691.146,0.0212887290958,-0.0212887290958
3693.075,0.0221274775396,-0.0119240806011
3695.003,0.0229728238248,0.00652777028994
3696.932,0.0238256448666,0.0114742083521
3698.86,0.0246850564545,0.0106147967642
