baseline wavenumber (cm-1),baseline absorbance (cm-1),baseline-subtracted absorbance (cm-1)
3199.379,0.18447385895,1.53488333154e-14
3201.308,0.182549839496,0.000918148201898
3203.236,0.180636663173,0.00173969105952
3205.165,0.178732345356,0.00213677465504
3207.093,0.176838860456,0.00116928241096
3209.021,0.174955218715,0.00154942935895
3210.95,0.173080450801,0.00268707558504
3212.878,0.171216500484,0.00409306825889
3214.807,0.169361434206,0.00439822889588
3216.736,0.167516221301,0.00380019723526
3218.664,0.165681810673,0.00397098166689
3220.593,0.163856299405,0.00500789294867
3222.521,0.1620415802,0.0050117852855
3224.449,0.160236704154,0.00524784886168
3226.378,0.158440742788,0.00618856454378
3228.306,0.156655558166,0.00772708669266
3230.235,0.154879298438,0.00792499316786
3232.164,0.153112892081,0.00852997504658
3234.092,0.151357247148,0.00909410533683
3236.021,0.149610542429,0.00942625773884
3237.949,0.147874588919,0.00941963768309
3239.877,0.146148478569,0.0103542823174
3241.806,0.144431323752,0.0105486510859
3243.734,0.142724904825,0.0109969795673
3245.663,0.141027451645,0.0111269832472
3247.592,0.139339851837,0.0120932578293
3249.52,0.137662972599,0.0136017579525
3251.448,0.13599593652,0.0146724775431
3253.377,0.134337886614,0.0139185263305
3255.305,0.132690541959,0.0140640187456
3257.234,0.13105219369,0.0136016820348
3259.162,0.129424540459,0.014334179049
3261.091,0.127805893828,0.0156166615649
3263.02,0.126197100569,0.0162362886812
3264.948,0.124598987026,0.0150531413031
3266.876,0.123010716642,0.0162055061862
3268.805,0.121431473285,0.0177465514583
3270.733,0.119862894325,0.0178274670369
3272.662,0.118303352605,0.0175460917231
3274.591,0.116753664258,0.0187033148435
3276.519,0.115214624986,0.0192065324894
3278.448,0.113684638276,0.0196224142159
3280.376,0.112165290428,0.0202593967881
3282.304,0.110655785739,0.0205755345935
3284.233,0.109155348931,0.0202593781257
3286.161,0.107665535666,0.0211779325663
3288.09,0.106184800495,0.0220717522415
3290.019,0.104713918696,0.0226702638715
3291.947,0.10325364512,0.0232545326952
3293.875,0.101803214703,0.0246591114315
3295.804,0.100361882806,0.0247390118611
3297.732,0.0989311438122,0.0246916981532
3299.661,0.0975095135527,0.0244779051933
3301.589,0.0960984659829,0.0251001430895
3303.518,0.0946965373606,0.0256013587742
3305.447,0.0933044621109,0.0261471000615
3307.375,0.0919229542295,0.0265735160298
3309.303,0.0905512895073,0.0277683442385
3311.232,0.0891887641593,0.0276278990126
3313.16,0.0878367908609,0.0277071037362
3315.089,0.0864939671501,0.0279609849712
3317.017,0.0851616852755,0.0294618556485
3318.946,0.0838385632019,0.0307094552506
3320.875,0.0825252945009,0.0305928294944
3322.803,0.0812225523146,0.0300592328255
3324.731,0.0799296532876,0.0304066506196
3326.66,0.0786459344884,0.0301537789386
3328.588,0.0773727268851,0.0294112949224
3330.517,0.0761087097231,0.0296033892494
3332.445,0.0748551935436,0.0296497690621
3334.374,0.0736108780188,0.0299014935476
3336.302,0.0723770532631,0.0319976234686
3338.231,0.0711524393754,0.0332456175198
3340.159,0.0699383060435,0.0332425145338
3342.088,0.0687333937931,0.0326019665201
3344.016,0.067538951885,0.0327925292082
3345.945,0.0663537412717,0.0327481668852
3347.873,0.0651789907874,0.03282999083
3349.802,0.0640134818112,0.0324836175108
3351.73,0.0628584227507,0.0331935448176
3353.659,0.0617126154118,0.0339905019433
3355.587,0.0605772477751,0.0352606287888
3357.516,0.0594511420733,0.0354132599676
3359.444,0.0583354658604,0.0360743684864
3361.373,0.0572290617959,0.0364828274891
3363.302,0.0561325111039,0.0353556764966
3365.23,0.0550463745793,0.0345909008802
3367.158,0.053970081214,0.0358854440534
3369.087,0.0529030804238,0.0366684929319
3371.015,0.0518464784823,0.0366557581851
3372.944,0.0507991793292,0.0359587014284
3374.872,0.0497622688115,0.0362407017624
3376.801,0.0487346712956,0.0365171634706
3378.729,0.0477174522017,0.0348546803209
3380.658,0.046709556323,0.0353189961338
3382.586,0.0457120286529,0.0366565671394
3384.515,0.0447238344114,0.0352862655397
3386.443,0.043745998165,0.035706717289
3388.372,0.0427775055607,0.0355255978152
3390.3,0.0418193607381,0.0352139795848
3392.229,0.040870569771,0.035093189228
3394.157,0.0399321163722,0.0354148117049
3396.086,0.0390030270423,0.0362218978196
3398.014,0.0380842650673,0.0364253456128
3399.943,0.0371748773746,0.0357778380794
3401.871,0.0362758068234,0.0356778522246
3403.8,0.0353861207678,0.0354752408034
3405.728,0.0345067416404,0.0359864435137
3407.657,0.033636757222,0.0355125752725
3409.585,0.0327770695184,0.0354323734116
3411.514,0.0319267867372,0.0347239087265
3413.442,0.0310867904574,0.0339910385774
3415.371,0.0302562093134,0.0327428470926
3417.299,0.0294359044573,0.0320886289878
3419.228,0.0286250249505,0.03138727672
3421.156,0.0278244115183,0.031401806417
3423.085,0.0270332336487,0.0304545695246
3425.013,0.0262523116402,0.0293210790078
3426.942,0.0254808354077,0.0274744661929
3428.87,0.0247196048231,0.0250802134477
3430.799,0.0239678302278,0.0233615889376
3432.727,0.0232262910669,0.0232754213815
3434.656,0.0224942181089,0.022565717587
3436.584,0.0217723703717,0.0222367510374
3438.513,0.0210599990509,0.0214857477863
3440.441,0.0203578427375,0.0202126821803
3442.37,0.0196651730539,0.0187076863856
3444.298,0.0189827081643,0.0187740542597
3446.227,0.0183097401178,0.0180312468116
3448.155,0.0176469666521,0.019831260789
3450.084,0.0169937002428,0.0209381862464
3452.012,0.0163506182008,0.020029789991
3453.941,0.0157170534287,0.0191905093028
3455.869,0.0150936628105,0.0191480720046
3457.798,0.0144797996756,0.0196004058182
3459.726,0.0138761004812,0.0198453645359
3461.655,0.0132819389834,0.0185087928262
3463.583,0.0126979312129,0.019036219902
3465.512,0.0121234713523,0.0198618505181
3467.44,0.0115591550055,0.0202020108574
3469.369,0.0110043967821,0.0195505064121
3471.297,0.0104597718591,0.0197502302378
3473.226,0.0099247152729,0.0197192701888
3475.154,0.00939978177369,0.020419397649
3477.083,0.00888442682467,0.0203356402754
3479.011,0.00837918474926,0.0212589294606
3480.94,0.00788353143741,0.0232148120308
3482.868,0.00739798078579,0.024904703215
3484.797,0.00692202911113,0.0242281071858
3486.725,0.0064561698833,0.0243769887104
3488.654,0.00599991984583,0.0239200494
3490.582,0.00555375204178,0.0249818598964
3492.511,0.0051172036415,0.025933715489
3494.439,0.00469072726125,0.0269968382661
3496.368,0.00427388049814,0.0279653031183
3498.296,0.00386709554168,0.0292381676162
3500.225,0.00346995041577,0.0296881889566
3502.153,0.00308285688309,0.0306156822935
3504.082,0.00270541339436,0.0322179807484
3506.01,0.00233801128548,0.0328645469028
3507.939,0.00198026943393,0.0342024732794
3509.867,0.00163255874884,0.0398816650577
3511.796,0.00129451853448,0.0410014554643
3513.724,0.000966499273176,0.0374664706017
3515.653,0.000648160695999,0.0358033315805
3517.581,0.00033983285849,0.0359423716568
3519.51,4.11959184952e-05,0.0370955902701
3521.438,-0.000247440495222,0.0381997016261
3523.367,-0.000526375798032,0.0385758271156
3525.295,-0.000795320787962,0.0389435698968
3527.224,-0.00105455445359,0.0405378493442
3529.152,-0.00130380801972,0.0426470316166
3531.081,-0.00154334004816,0.0420770647983
3533.009,-0.00177290219051,0.0424658496987
3534.938,-0.00199273258176,0.0423503197768
3536.866,-0.00220260330032,0.0432739320205
3538.795,-0.00240273205439,0.0420350449082
3540.723,-0.00259291134916,0.0404413072393
3542.652,-0.00277333846604,0.0393657757345
3544.58,-0.00294382633702,0.0408582388624
3546.509,-0.00310455181672,0.0423763069016
3548.437,-0.0032553482639,0.042160220005
3550.366,-0.00339637210642,0.0416819316227
3552.294,-0.00352747712981,0.0444315101207
3554.223,-0.00364879933514,0.0470651689444
3556.151,-0.00376021293475,0.0498714172403
3558.08,-0.0038618335029,0.0537271791379
3560.008,-0.00395355567871,0.0599235703568
3561.937,-0.00403547460967,0.0640120594982
3563.865,-0.00410750536169,0.0660104549668
3565.794,-0.00416972265547,0.0647806823256
3567.722,-0.0042220619837,0.0631780275949
3569.651,-0.00426457764029,0.0592019160061
3571.579,-0.00429722554473,0.0549334176185
3573.508,-0.00432003956414,0.0509547288771
3575.436,-0.00433299604479,0.0485728786198
3577.365,-0.00433610842702,0.045378605107
3579.293,-0.00432937348387,0.043381445896
3581.222,-0.00431278422892,0.0434796256352
3583.15,-0.00428635786198,0.0446142043707
3585.079,-0.00425006696983,0.0452059976331
3587.007,-0.00420394917911,0.0517476690365
3588.936,-0.00414795664978,0.0632189009428
3590.864,-0.00408214743527,0.0703945120121
3592.793,-0.00400645326875,0.0804591337748
3594.721,-0.00392095263045,0.0993921205902
3596.65,-0.00382555682675,0.119170073497
3598.578,-0.00372036476466,0.12506732779
3600.507,-0.00360526732377,0.11018931709
3602.435,-0.00348038383789,0.0821480989424
3604.364,-0.00334558475982,0.0584157601984
3606.292,-0.00320100985014,0.0451008840376
3608.221,-0.00304650913489,0.0382261065348
3610.149,-0.00288224280143,0.0335634827539
3612.078,-0.00270804044899,0.0277427437411
3614.006,-0.00252408269173,0.0272257322339
3615.935,-0.00233017870211,0.0276214347306
3617.863,-0.00212652952106,0.0262543690402
3619.792,-0.00191292389426,0.0259281611907
3621.72,-0.00168958328942,0.0281721093256
3623.649,-0.00145627602543,0.0263746726145
3625.577,-0.0012132439968,0.0240015643994
3627.506,-0.000960235095622,0.0203409927667
3629.434,-0.0006975116432,0.024042203053
3631.363,-0.000424801104838,0.0249066281825
3633.291,-0.000142386228628,0.022934201424
3635.22,0.000150025946915,0.0228988312559
3637.148,0.000452132246917,0.0213604070695
3639.077,0.000764246059646,0.0208042518784
3641.005,0.00108604378344,0.0208650640659
3642.934,0.00141785923335,0.0194722295344
3644.862,0.00175934838094,0.0164571889784
3646.791,0.00211086546803,0.0118664882749
3648.719,0.0024720460394,0.0104928662413
3650.648,0.00284326476369,0.0158497526404
3652.576,0.00322413675885,0.017901396197
3654.505,0.00361505712032,0.0150402165219
3656.433,0.00401562053928,0.0161656543611
3658.362,0.00442624253793,0.0159501116943
3660.29,0.00484649738068,0.0140926932253
3662.219,0.00527682101652,0.013990810213
3664.147,0.00571676728305,0.013965171628
3666.076,0.00616679255607,0.0123387991123
3668.004,0.0066264302464,0.0124001651265
3669.933,0.00709615715661,0.0139508128581
3671.861,0.00757548627072,0.0123193903631
3673.79,0.00806491481811,0.0078575706785
3675.718,0.00856393535602,0.0103579909737
3677.647,0.0090730655406,0.00961572316423
3679.575,0.00959177750229,0.00707111478819
3681.504,0.0101206093241,0.0066020439226
3683.432,0.0106590127095,0.00665198889806
3685.361,0.0112075461685,0.00496362878083
3687.289,0.0117656409778,0.00151921958
3689.218,0.0123338760739,0.00351808450483
3691.146,0.012911662307,0.00746196598687
3693.075,0.0134995990403,0.00504695159926
3695.003,0.0140970766971,0.00243081174907
3696.932,0.0147047150676,0.00153859240422
3698.86,0.0153218841483,0.000921423323571
