baseline wavenumber (cm-1),baseline absorbance (cm-1),baseline-subtracted absorbance (cm-1)
3199.379,0.182615153421,1.79856129989e-14
3201.308,0.180692426489,0.00174833677387
3203.236,0.178780542016,0.00275262356701
3205.165,0.176877516721,0.00376587462595
3207.093,0.174985323672,0.00896763641734
3209.021,0.173102973783,0.00902081177699
3210.95,0.171229498389,0.00942402785693
3212.878,0.169366839923,0.00301171602848
3214.807,0.167513066167,-0.0025141146046
3216.736,0.165669145783,0.00552782073689
3218.664,0.163836027006,0.00984224237306
3220.593,0.162011808259,0.00974257770594
3222.521,0.160198380905,0.0115899045493
3224.449,0.158394796711,0.00928116610451
3226.378,0.156600127866,0.0119841315874
3228.306,0.154816235095,0.0184653753051
3230.235,0.153041267888,0.0137917509142
3232.164,0.151276154053,0.00890138141941
3234.092,0.14952180097,0.0117786114151
3236.021,0.147776388773,0.0113740271077
3237.949,0.146041727114,0.0167782211629
3239.877,0.144316908615,0.0195916676066
3241.806,0.142601046319,0.0189202369691
3243.734,0.140895919243,0.0137364285585
3245.663,0.139199758584,0.0149754703245
3247.592,0.137513451298,0.0192912596826
3249.52,0.135837863911,0.0153342895803
3251.448,0.134172119683,0.0188382947994
3253.377,0.132515362299,0.0210633054865
3255.305,0.130869309494,0.0184582923788
3257.234,0.129232253747,0.0203581565416
3259.162,0.127605892367,0.0255956872796
3261.091,0.125988538257,0.0252314938955
3263.02,0.124381037519,0.0246274897753
3264.948,0.122784215827,0.0253771737025
3266.876,0.121197237294,0.0193311753708
3268.805,0.119619286459,0.0218946577646
3270.733,0.11805199935,0.027911515014
3272.662,0.116493750151,0.0280274632411
3274.591,0.114945354325,0.0233467404538
3276.519,0.113407606904,0.0227869132606
3278.448,0.111878912716,0.0266214717116
3280.376,0.110360856719,0.0299295605595
3282.304,0.108852643881,0.0341361028861
3284.233,0.107353499594,0.0314691047254
3286.161,0.10586497818,0.0282288220573
3288.09,0.10438553553,0.0264311975372
3290.019,0.102915946253,0.026034218002
3291.947,0.101456964528,0.026190340987
3293.875,0.100007825962,0.0245829338063
3295.804,0.0985677865861,0.0287660360182
3297.732,0.0971383394437,0.0308479609687
3299.661,0.0957180017054,0.0313743307193
3301.589,0.0943082459867,0.0322270164722
3303.518,0.0929076098856,0.0333190623727
3305.447,0.0915168271571,0.034496662743
3307.375,0.0901366111268,0.0348892503396
3309.303,0.0887662382558,0.0344377877455
3311.232,0.087405005429,0.0340656033639
3313.16,0.0860543239818,0.0364126502267
3315.089,0.0847127927922,0.0359749824227
3317.017,0.0833818027687,0.0357410042488
3318.946,0.0820599732163,0.0319967822181
3320.875,0.0807479970365,0.0304545611517
3322.803,0.0794465467015,0.0385767985142
3324.731,0.0781549395256,0.0377226029362
3326.66,0.0768725132476,0.0336510067077
3328.588,0.0756005974955,0.0338206648237
3330.517,0.0743378728546,0.0373969422708
3332.445,0.0730856485263,0.0380484117239
3334.374,0.0718426255227,0.0398285843746
3336.302,0.0706100926182,0.0385833092131
3338.231,0.0693867712517,0.0420275713778
3340.159,0.068173929771,0.050023456124
3342.088,0.0669703100417,0.0499567186855
3344.016,0.0657771599848,0.0454977404136
3345.945,0.0645932418927,0.0470825112352
3347.873,0.0634197832595,0.0476422842599
3349.802,0.0622555668046,0.0463601457836
3351.73,0.0611017995953,0.049583878744
3353.659,0.0599572847775,0.05386147527
3355.587,0.058823208992,0.05293257489
3357.516,0.0576983958114,0.0473501818079
3359.444,0.0565840114497,0.0467273046893
3361.373,0.0554788999063,0.0443351771189
3363.302,0.0543836417355,0.0409630417061
3365.23,0.0532987970621,0.0441426651591
3367.158,0.052223795548,0.0472956704477
3369.087,0.051158087279,0.0483872401831
3371.015,0.0501027771886,0.0517861582976
3372.944,0.0490567705568,0.0470898709474
3374.872,0.0480211518902,0.0433348277002
3376.801,0.0469948468955,0.0471202715779
3378.729,0.0459789196527,0.0535024531019
3380.658,0.0449723162953,0.0459660355604
3382.586,0.0439760804763,0.0428831492714
3384.515,0.042989178756,0.0489378499712
3386.443,0.0420126343608,0.0549566813588
3388.372,0.0410454342777,0.0586938541825
3390.3,0.0400885813063,0.0548128655379
3392.229,0.0391410828604,0.0515956194532
3394.157,0.0382039213127,0.047983958746
3396.086,0.037276124504,0.049335324437
3398.014,0.0363586543802,0.0511600427611
3399.943,0.0354505592087,0.0533800831343
3401.871,0.0345527805086,0.057848491596
3403.8,0.0336643869743,0.0644693936925
3405.728,0.032786299698,0.070366702329
3407.657,0.0319176078008,0.0641961826514
3409.585,0.0310592119483,0.0590861714304
3411.514,0.0302102216884,0.0547646158038
3413.442,0.0293715172597,0.0552454534539
3415.371,0.0285422286369,0.0577774051088
3417.299,0.027723215632,0.0606524046937
3419.228,0.0269136286464,0.0582918651678
3421.156,0.0261143070653,0.0561443774947
3423.085,0.0253244217169,0.0557467322637
3425.013,0.0245447915596,0.0625545304506
3426.942,0.0237746078483,0.0573056325934
3428.87,0.0230146691148,0.0545924462832
3430.799,0.0222641870408,0.0563571172159
3432.727,0.021523939731,0.057717340761
3434.656,0.0207931592942,0.0604279212957
3436.584,0.0200726034082,0.0597771205032
3438.513,0.0193615246086,0.0613863610418
3440.441,0.0186606601464,0.063761930194
3442.37,0.0179692829839,0.0625958250052
3444.298,0.0172881099455,0.0651253939337
3446.227,0.0166164344202,0.0637907089362
3448.155,0.0159549528057,0.0573479758307
3450.084,0.0153029789175,0.0530530705687
3452.012,0.0146611887267,0.0551172414123
3453.941,0.0140289164758,0.0624388964829
3455.869,0.0134068177088,0.0694281581771
3457.798,0.0127942470951,0.0657543654722
3459.726,0.0121918397519,0.0599106275718
3461.655,0.0115989707753,0.0696242066903
3463.583,0.0110162548559,0.0778084463393
3465.512,0.0104430875165,0.0754617143287
3467.44,0.00988006302088,0.0805836959782
3469.369,0.00932659731869,0.0810333663355
3471.297,0.00878326424685,0.0858847304411
3473.226,0.00824950018184,0.0940720906478
3475.154,0.00772585853379,0.101412325572
3477.083,0.00721179610597,0.102455150144
3479.011,0.00670784588171,0.105225473472
3480.94,0.00621348509108,0.11322629963
3482.868,0.00572922629061,0.113827983467
3484.797,0.00525456713716,0.116696226181
3486.725,0.00478999976048,0.125775807187
3488.654,0.00433504224422,0.125487422284
3490.582,0.00389016629133,0.120845277897
3492.511,0.00345491041225,0.118675515254
3494.439,0.00302972588315,0.115029266219
3496.368,0.00261417164126,0.111397151487
3498.296,0.00220867853595,0.110055597692
3500.225,0.00181282593124,0.115423841434
3502.153,0.00142702424973,0.118859199277
3504.082,0.0010508732822,0.116871122943
3506.01,0.000684763024474,0.119893625177
3507.939,0.00032831369413,0.128309066609
3509.867,-1.81051398016e-05,0.135366535978
3511.796,-0.000354852832963,0.144210657684
3513.724,-0.000681580243103,0.150819275078
3515.653,-0.000998626299076,0.162546819491
3517.581,-0.00130566228543,0.181229825283
3519.51,-0.00160300670422,0.193373468716
3521.438,-0.00189035126678,0.208632854936
3523.367,-0.00216799404838,0.223411091833
3525.295,-0.00243564718715,0.223653232984
3527.224,-0.00269358833157,0.215048729172
3529.152,-0.00294155004655,0.201701248096
3531.081,-0.00317978955379,0.193585534993
3533.009,-0.00340805984498,0.189078011617
3534.938,-0.00362659771503,0.174640786574
3536.866,-0.00383517658243,0.165100291561
3538.795,-0.00403401281529,0.17008384856
3540.723,-0.0042229002589,0.174086253862
3542.652,-0.00440203485458,0.166717335057
3544.58,-0.0045712308744,0.156547885659
3546.509,-0.00473066383289,0.147011016108
3548.437,-0.00488016842892,0.134760995996
3550.366,-0.00501989975023,0.130066031015
3552.294,-0.00514971292247,0.137464663646
3554.223,-0.0052697426066,0.14796108251
3556.151,-0.00537986435504,0.167617929638
3558.08,-0.00548019240199,0.197873077004
3560.008,-0.00557062272664,0.222175082082
3561.937,-0.0056512491364,0.245373063633
3563.865,-0.00572198803727,0.267143669732
3565.794,-0.00578291280983,0.291328449959
3567.722,-0.00583396028691,0.323615116364
3569.651,-0.0058751834223,0.362489777677
3571.579,-0.00590653947558,0.401639677101
3573.508,-0.00592806097378,0.40388378195
3575.436,-0.00593972560328,0.343260966954
3577.365,-0.0059415454643,0.260276835882
3579.293,-0.00593351867,0.191971472119
3581.222,-0.00591563689383,0.148669184108
3583.15,-0.00588791867574,0.121137097399
3585.079,-0.00585033526239,0.108509523073
3587.007,-0.00580292562051,0.0995552846056
3588.936,-0.00574564056998,0.0991932536265
3590.864,-0.00567853950431,0.10839294504
3592.793,-0.00560155281659,0.116014287841
3594.721,-0.00551476032713,0.127869202209
3596.65,-0.00541807200223,0.145016170835
3598.578,-0.00531158808897,0.153012014454
3600.507,-0.00519519812688,0.130476179465
3602.435,-0.00506902278984,0.0983911727863
3604.364,-0.00493293119057,0.079713108726
3606.292,-0.00478706442974,0.0660277158591
3608.221,-0.00463127119328,0.0561591945874
3610.149,-0.00446571300865,0.0556602331736
3612.078,-0.00429021813501,0.0531379849624
3614.006,-0.0041049685266,0.0510340941294
3615.935,-0.00390977201577,0.0476768091305
3617.863,-0.00370483098357,0.043673727328
3619.792,-0.00348993283555,0.0452289417123
3621.72,-0.00326530037956,0.0504222864703
3623.649,-0.00303070059436,0.0501324689595
3625.577,-0.00278637671457,0.0388501916304
3627.506,-0.00253207529219,0.0283393724195
3629.434,-0.00226805998862,0.0317186785669
3631.363,-0.00199405692905,0.0322823773317
3633.291,-0.00171035020169,0.0282110142123
3635.22,-0.00141664550494,0.0256296181757
3637.148,-0.00111324735378,0.0283523610743
3639.077,-0.000799841019841,0.0309130723052
3641.005,-0.000476751444893,0.0292242177201
3642.934,-0.000143643473773,0.0279796677975
3644.862,0.000199137524966,0.0285458823954
3646.791,0.000551947133271,0.0303221005357
3648.719,0.000914419555798,0.0286738938572
3650.648,0.00128693080129,0.0228648829962
3652.576,0.00166909464761,0.017947876066
3654.505,0.00206130753028,0.017044724482
3656.433,0.0024631628004,0.0210113601604
3658.362,0.00287507732025,0.0213613104619
3660.29,0.00329662401415,0.0198776962487
3662.219,0.0037282401712,0.018468586557
3664.147,0.00416947828889,0.0174706279528
3666.076,0.00462079608312,0.0191993618815
3668.004,0.0050817256246,0.0207276683783
3669.933,0.00555274505601,0.0226061981187
3671.861,0.00603336602129,0.0170944734978
3673.79,0.00652408708989,0.00626091325959
3675.718,0.00702439947895,0.00927146967601
3677.647,0.00753482218473,0.0139273991055
3679.575,0.00805482599758,0.0158027262496
3681.504,0.00858495034055,0.0127713787291
3683.432,0.0091246455772,0.00358277037304
3685.361,0.00967447155735,-0.00306092574062
3687.289,0.0102338582178,-0.00354063112615
3689.218,0.0108033858351,-0.00171377934879
3691.146,0.0113824639193,0.00245901228112
3693.075,0.0119716931739,-0.00089599596271
3695.003,0.0125704626819,0.000172949633767
3696.932,0.0131793935736,0.00866026533464
3698.86,0.0137978545054,0.00804180440283
