wavenumber (/cm),baseline value (/cm),baseline-subtracted absorbance (/cm),
3.199378999999999905e+03,1.193761969665025902e-01,1.236789683389027950e-03
3.201307999999999993e+03,1.176531216112941536e-01,-8.858049131742484761e-04
3.203235999999999876e+03,1.159414884810985313e-01,1.462579457672807948e-03
3.205164999999999964e+03,1.142395220228706876e-01,4.173842064638999538e-03
3.207092999999999847e+03,1.125489868467361987e-01,4.474847639878820615e-03
3.209021000000000186e+03,1.108689979126111780e-01,4.660812669621261506e-03
3.210949999999999818e+03,1.091986920634191449e-01,5.239694740243439064e-03
3.212878000000000156e+03,1.075398010833517048e-01,5.707909827391333124e-03
3.214806999999999789e+03,1.058906041311473700e-01,4.372553763589581699e-03
3.216735999999999876e+03,1.042519643638719629e-01,3.649063105199190638e-03
3.218664000000000215e+03,1.026247230499173213e-01,7.191101371694430533e-03
3.220592999999999847e+03,1.010071921796260597e-01,7.873775179009556702e-03
3.222521000000000186e+03,9.940104881973610418e-02,7.067113618231313232e-03
3.224449000000000069e+03,9.780545170185561688e-02,9.927476235517818104e-03
3.226378000000000156e+03,9.621958144060016593e-02,1.441192761091314445e-02
3.228306000000000040e+03,9.464508227678081198e-02,1.622337372377835596e-02
3.230235000000000127e+03,9.308032091250595386e-02,1.252497719331646664e-02
3.232164000000000215e+03,9.152611673316712881e-02,1.214795889414821417e-02
3.234092000000000098e+03,8.998326723546057337e-02,1.120775813673491328e-02
3.236021000000000186e+03,8.845017195310234115e-02,1.317420772118305106e-02
3.237949000000000069e+03,8.692842040945691906e-02,1.441532740629758447e-02
3.239876999999999953e+03,8.541721510782096516e-02,1.562598053067776327e-02
3.241806000000000040e+03,8.391578043450209634e-02,1.678842030639393634e-02
3.243733999999999924e+03,8.242567308692372308e-02,1.523596107817026812e-02
3.245663000000000011e+03,8.094534731058544708e-02,1.308764353305746919e-02
3.247592000000000098e+03,7.947557871918320416e-02,1.468741841508680590e-02
3.249519999999999982e+03,7.801712103772118212e-02,1.878094983667599749e-02
3.251447999999999865e+03,7.656920959826862827e-02,2.356464096439314648e-02
3.253376999999999953e+03,7.513110161589864333e-02,2.450264410298030882e-02
3.255304999999999836e+03,7.370428813050722283e-02,2.079420910860652061e-02
3.257233999999999924e+03,7.228728904511783071e-02,1.933848854627107094e-02
3.259161999999999807e+03,7.088157351379109627e-02,2.306125167667516518e-02
3.261090999999999894e+03,6.948568332538584968e-02,2.332168369774967331e-02
3.263019999999999982e+03,6.810035032191663618e-02,2.395563625807917152e-02
3.264947999999999865e+03,6.672628445669914754e-02,2.346872497924135104e-02
3.266876000000000204e+03,6.536276483349467981e-02,2.335744205823664377e-02
3.268804999999999836e+03,6.400909243905772428e-02,2.236890434573290953e-02
3.270733000000000175e+03,6.266667076991083718e-02,2.339015456034709839e-02
3.272661999999999807e+03,6.133410727245802718e-02,2.490899051184336521e-02
3.274590999999999894e+03,6.001210095993769755e-02,2.407960240205297975e-02
3.276518999999999778e+03,5.870132895690716168e-02,2.741106357821554429e-02
3.278447999999999865e+03,5.740043154136742487e-02,2.684049947142352899e-02
3.280376000000000204e+03,5.611075749239802235e-02,2.704713724444407497e-02
3.282304000000000087e+03,5.483162968543453530e-02,3.093023513598158747e-02
3.284233000000000175e+03,5.356239287893416190e-02,3.388326309366662681e-02
3.286161000000000058e+03,5.230436302603536092e-02,3.335510436754818286e-02
3.288090000000000146e+03,5.105623511651913304e-02,2.958156456195992767e-02
3.290018999999999778e+03,4.981866439193183282e-02,2.977593964804858828e-02
3.291947000000000116e+03,4.859228420514583036e-02,3.317643041007756199e-02
3.293875000000000000e+03,4.737645026036929607e-02,3.364228182881778828e-02
3.295804000000000087e+03,4.617054014481425384e-02,3.324268415098508012e-02
3.297731999999999971e+03,4.497580415409885291e-02,3.545475431378408704e-02
3.299661000000000058e+03,4.379100293553506162e-02,3.824471384645988792e-02
3.301588999999999942e+03,4.261736489887724133e-02,3.806586708546610964e-02
3.303518000000000029e+03,4.145367257729404287e-02,3.797178349316099322e-02
3.305447000000000116e+03,4.030053744064332477e-02,3.722654720323725908e-02
3.307375000000000000e+03,3.915854907010185570e-02,4.015297675641660291e-02
3.309302999999999884e+03,3.802710694156985483e-02,4.490712105870975357e-02
3.311231999999999971e+03,3.690563241395494742e-02,4.344873957178629897e-02
3.313159999999999854e+03,3.579528823948407990e-02,3.889157832932843561e-02
3.315088999999999942e+03,3.469492260884976531e-02,3.985389964599050927e-02
3.317016999999999825e+03,3.360567638844003113e-02,4.246827342633596736e-02
3.318945999999999913e+03,3.252641965479341479e-02,4.385996463261832012e-02
3.320875000000000000e+03,3.145772010607572611e-02,4.206433203623227701e-02
3.322802999999999884e+03,3.040012355177879044e-02,4.232232000731817045e-02
3.324731000000000222e+03,2.935307323949132297e-02,4.201688552195415038e-02
3.326659999999999854e+03,2.831603429980944497e-02,4.219385596369795710e-02
3.328588000000000193e+03,2.729008194158311085e-02,4.549247205296502727e-02
3.330516999999999825e+03,2.627415189888537839e-02,4.751035917960766408e-02
3.332445000000000164e+03,2.526929749472373032e-02,4.828770257517212006e-02
3.334373999999999796e+03,2.427447634901014339e-02,4.812539783845060093e-02
3.336302000000000135e+03,2.329071989890607597e-02,4.575694907432381608e-02
3.338231000000000222e+03,2.231700765017663457e-02,4.589785220863384918e-02
3.340159000000000106e+03,2.135434915413370049e-02,5.107243493756974395e-02
3.342088000000000193e+03,2.040174580238485191e-02,5.199323567521363376e-02
3.344016000000000076e+03,1.946018526040660390e-02,5.102698885016865304e-02
3.345945000000000164e+03,1.852869080564190085e-02,5.099531842061100217e-02
3.347873000000000047e+03,1.760822821772478619e-02,5.429538539798783869e-02
3.349802000000000135e+03,1.669784265994422867e-02,5.384210282128876202e-02
3.351730000000000018e+03,1.579847802608824736e-02,5.259566470124810156e-02
3.353659000000000106e+03,1.490920136528828266e-02,5.373167373081866316e-02
3.355586999999999989e+03,1.403093468549343470e-02,5.350733329521539794e-02
3.357516000000000076e+03,1.316276692168116824e-02,5.341128773687764397e-02
3.359443999999999960e+03,1.230559819594745363e-02,5.443026536734330012e-02
3.361373000000000047e+03,1.145853932911577999e-02,5.752412649880067619e-02
3.363302000000000135e+03,1.062203764722013943e-02,5.987142709032089449e-02
3.365230000000000018e+03,9.796518587599223338e-03,5.672546365885366981e-02
3.367157999999999902e+03,8.981545769987775429e-03,5.616348812950200386e-02
3.369086999999999989e+03,8.176704697124392851e-03,5.860703752696172497e-02
3.371014999999999873e+03,7.382829833574078293e-03,6.015998137772105014e-02
3.372943999999999960e+03,6.599097657698393959e-03,5.721511915924448743e-02
3.374871999999999844e+03,5.826320748205660038e-03,5.611678402568132107e-02
3.376800999999999931e+03,5.063697469310568522e-03,5.579357519442051938e-02
3.378728999999999814e+03,4.312018513886073379e-03,5.587110862667454825e-02
3.380657999999999902e+03,3.570504131971574679e-03,5.478624431284562224e-02
3.382585999999999785e+03,2.839923130608212887e-03,5.464697139654639546e-02
3.384514999999999873e+03,2.119517645677859718e-03,5.874369616574304231e-02
3.386443000000000211e+03,1.410034598372078563e-03,6.453216152939766914e-02
3.388371999999999844e+03,7.107380104294236389e-04,6.422565676136060553e-02
3.390300000000000182e+03,2.235291718832854713e-05,6.135040167846417258e-02
3.392228999999999814e+03,-6.558347737737335592e-04,6.114405732217664813e-02
3.394157000000000153e+03,-1.323121912957248014e-03,6.266547181160830871e-02
3.396085999999999785e+03,-1.980200706935164590e-03,6.334806259272540707e-02
3.398014000000000124e+03,-2.626389892053992980e-03,6.532891313242583653e-02
3.399943000000000211e+03,-3.262359789047764025e-03,6.657437488655248981e-02
3.401871000000000095e+03,-3.887451020105459065e-03,6.692407644821751767e-02
3.403800000000000182e+03,-4.502312020115084579e-03,6.651321577352253822e-02
3.405728000000000065e+03,-5.106305297115198982e-03,6.678799957264469622e-02
3.407657000000000153e+03,-5.700057400140678965e-03,6.646506753503966802e-02
3.409585000000000036e+03,-6.282952723076107304e-03,6.890649364709933167e-02
3.411514000000000124e+03,-6.855595929120994469e-03,7.163821981952434026e-02
3.413442000000000007e+03,-7.417393297995289458e-03,7.495426336160060377e-02
3.415371000000000095e+03,-7.968927607056031093e-03,7.322998862613772086e-02
3.417298999999999978e+03,-8.509627021869192731e-03,7.207571355293795889e-02
3.419228000000000065e+03,-9.040052433945788835e-03,6.871084295606788572e-02
3.421155999999999949e+03,-9.559653894697817123e-03,6.808764718469573207e-02
3.423085000000000036e+03,-1.006897040979026769e-02,7.041635281001390467e-02
3.425012999999999920e+03,-1.056747391647760992e-02,7.515893264297512921e-02
3.426942000000000007e+03,-1.105568153458946767e-02,7.798410817888945523e-02
3.428869999999999891e+03,-1.153308708721922926e-02,7.647332613104396160e-02
3.430798999999999978e+03,-1.200018580834338877e-02,7.557675671768848691e-02
3.432726999999999862e+03,-1.245649340691201701e-02,7.519990572256174399e-02
3.434655999999999949e+03,-1.290248323105203099e-02,7.563750804408053696e-02
3.436583999999999833e+03,-1.333769287555952587e-02,7.734971496264986257e-02
3.438512999999999920e+03,-1.376257380271539432e-02,7.843860651397560613e-02
3.440440999999999804e+03,-1.417668549316530857e-02,7.884433070180452141e-02
3.442369999999999891e+03,-1.458045752333703149e-02,7.609649862209988402e-02
3.444297999999999774e+03,-1.497347125971870696e-02,7.262147573305344217e-02
3.446226999999999862e+03,-1.535613439291338977e-02,7.246873661560160329e-02
3.448155000000000200e+03,-1.572805017523393190e-02,7.416133458146867419e-02
3.450083999999999833e+03,-1.608960441144091646e-02,7.810120712340018478e-02
3.452012000000000171e+03,-1.644042223970387795e-02,8.202929481955989477e-02
3.453940999999999804e+03,-1.678086757892671699e-02,8.292611116598203047e-02
3.455869000000000142e+03,-1.711058745312499241e-02,8.147942788088768928e-02
3.457797999999999774e+03,-1.742992389536723863e-02,8.128852458034663275e-02
3.459726000000000113e+03,-1.773854581550438070e-02,7.992488816540299634e-02
3.461655000000000200e+03,-1.803677336076248139e-02,7.842155004350515046e-02
3.463583000000000084e+03,-1.832429732683849011e-02,8.031772711645202012e-02
3.465512000000000171e+03,-1.860141597511244527e-02,8.362518056587220361e-02
3.467440000000000055e+03,-1.886784198712732064e-02,8.243602539385130878e-02
3.469369000000000142e+03,-1.912385173841713026e-02,8.258264813179105879e-02
3.471297000000000025e+03,-1.936917979637087228e-02,8.193925039118454823e-02
3.473226000000000113e+03,-1.960408065067653638e-02,8.090274563984267697e-02
3.475153999999999996e+03,-1.982831075456914505e-02,8.163232277665621872e-02
3.477083000000000084e+03,-2.004210271189066361e-02,8.165529904934787364e-02
3.479010999999999967e+03,-2.024523486172569164e-02,8.382739743948475208e-02
3.480940000000000055e+03,-2.043791792206306468e-02,8.202769914803642592e-02
3.482867999999999938e+03,-2.061995211782985393e-02,7.895188753405979476e-02
3.484797000000000025e+03,-2.079152628119018686e-02,8.030190581568386055e-02
3.486724999999999909e+03,-2.095246252289584277e-02,8.319926478752159849e-02
3.488653999999999996e+03,-2.110292778926847745e-02,8.211012706235165659e-02
3.490581999999999880e+03,-2.124276607691655272e-02,7.535438975763231184e-02
3.492510999999999967e+03,-2.137212244630504188e-02,7.190402990419275664e-02
3.494438999999999851e+03,-2.149086277988843108e-02,7.361115354664604649e-02
3.496367999999999938e+03,-2.159911025229277470e-02,7.316268053257513060e-02
3.498295999999999822e+03,-2.169675263181858327e-02,7.605475920202897644e-02
3.500224999999999909e+03,-2.178389120723878136e-02,7.738289868609526945e-02
3.502152999999999793e+03,-2.186043563269990386e-02,7.117091302139078035e-02
3.504081999999999880e+03,-2.192646531113595643e-02,6.486768289693312095e-02
3.506010000000000218e+03,-2.198191178253949829e-02,6.862621177554995011e-02
3.507938999999999851e+03,-2.202683256399495804e-02,7.448192447704460317e-02
3.509867000000000189e+03,-2.206118108133736655e-02,7.726352958207127752e-02
3.511795999999999822e+03,-2.208499296580512805e-02,7.635003804863171872e-02
3.513724000000000160e+03,-2.209824352908285050e-02,7.439117705812459125e-02
3.515652999999999793e+03,-2.210094651657001918e-02,7.213624392343376268e-02
3.517581000000000131e+03,-2.209309912579016100e-02,6.898028721553650655e-02
3.519510000000000218e+03,-2.207469321628963144e-02,6.297180651747091851e-02
3.521438000000000102e+03,-2.204574787144508718e-02,6.381690884159951782e-02
3.523367000000000189e+03,-2.200623306496751752e-02,6.484610166075976956e-02
3.525295000000000073e+03,-2.195618976606183992e-02,6.626177444489045332e-02
3.527224000000000160e+03,-2.189556606259657201e-02,6.608058039124697913e-02
3.529152000000000044e+03,-2.182442480963331377e-02,6.233955726227891070e-02
3.531081000000000131e+03,-2.174269220918390033e-02,6.133240353930202726e-02
3.533009000000000015e+03,-2.165045300215595603e-02,6.408108136589407700e-02
3.534938000000000102e+03,-2.154761150472239706e-02,6.596083580052169992e-02
3.536865999999999985e+03,-2.143427434363687212e-02,6.246174341472099378e-02
3.538795000000000073e+03,-2.131032394921916762e-02,6.082978994488574820e-02
3.540722999999999956e+03,-2.117588883406895661e-02,6.092845750674669159e-02
3.542652000000000044e+03,-2.103082954267065929e-02,6.185245532026206750e-02
3.544579999999999927e+03,-2.087529647345931494e-02,6.115453041488660979e-02
3.546509000000000015e+03,-2.070912828507687209e-02,5.514262237887712637e-02
3.548436999999999898e+03,-2.053249726180084167e-02,5.391650509013667936e-02
3.550365999999999985e+03,-2.034522017643780600e-02,6.003802789294021558e-02
3.552293999999999869e+03,-2.014749119910419495e-02,6.112568369228932319e-02
3.554222999999999956e+03,-1.993910521675346104e-02,5.743683360146023542e-02
3.556150999999999840e+03,-1.972027828535871663e-02,5.812735174590255571e-02
3.558079999999999927e+03,-1.949078340602383719e-02,6.535854044803135476e-02
3.560007999999999811e+03,-1.925085852056795943e-02,6.873467763009488696e-02
3.561936999999999898e+03,-1.900025474424893446e-02,7.058689065673928731e-02
3.563864999999999782e+03,-1.873923190473192335e-02,7.587979246949050349e-02
3.565793999999999869e+03,-1.846751923143230556e-02,6.730130688782420822e-02
3.567722000000000207e+03,-1.818539843785416110e-02,4.753956073602993992e-02
3.569650999999999840e+03,-1.789257686757039778e-02,4.936528253612426642e-02
3.571579000000000178e+03,-1.758935811992756726e-02,5.586397893491334976e-02
3.573507999999999811e+03,-1.727542765265965841e-02,5.783808928682476758e-02
3.575436000000000149e+03,-1.695111095095924725e-02,5.570451837389911454e-02
3.577364999999999782e+03,-1.661607158670719286e-02,5.120158916551476036e-02
3.579293000000000120e+03,-1.627065693094209564e-02,5.290552098350387311e-02
3.581222000000000207e+03,-1.591450866970944844e-02,5.669175057926423289e-02
3.583150000000000091e+03,-1.554799605988321787e-02,5.764661911153634577e-02
3.585079000000000178e+03,-1.517073890166287242e-02,6.085047609324745199e-02
3.587007000000000062e+03,-1.478312833777550850e-02,5.792005431806490634e-02
3.588936000000000149e+03,-1.438476228257457024e-02,5.609756021365719381e-02
3.590864000000000033e+03,-1.397605376462607296e-02,7.361713854829843307e-02
3.592793000000000120e+03,-1.355657881244098917e-02,8.855692829171679659e-02
3.594721000000000004e+03,-1.312677234043491126e-02,9.996992604142052041e-02
3.596650000000000091e+03,-1.268618849126212922e-02,1.117967637341502618e-01
3.598577999999999975e+03,-1.223528406519136524e-02,1.196487879444113611e-01
3.600507000000000062e+03,-1.177359131903799039e-02,1.042311295870187449e-01
3.602434999999999945e+03,-1.130158893890964578e-02,8.015739378968200768e-02
3.604364000000000033e+03,-1.081878729577212539e-02,6.399904870627048936e-02
3.606291999999999916e+03,-1.032568696157554200e-02,5.500870925835343872e-02
3.608221000000000004e+03,-9.821776421457428796e-03,4.558713603563235850e-02
3.610148999999999887e+03,-9.307578133203264770e-03,3.822209550232336106e-02
3.612077999999999975e+03,-8.782558696097453321e-03,3.732418167785467311e-02
3.614005999999999858e+03,-8.247262453782155944e-03,2.773317843896427881e-02
3.615934999999999945e+03,-7.701134119695751679e-03,3.070176318239237201e-02
3.617862999999999829e+03,-7.144739923319320951e-03,2.933073279394216026e-02
3.619791999999999916e+03,-6.577502692245218441e-03,1.568458314237453077e-02
3.621719999999999800e+03,-6.000010541811207077e-03,2.424038238776082821e-02
3.623648999999999887e+03,-5.411664413756511749e-03,3.265322448924401488e-02
3.625577000000000226e+03,-4.813074309254261607e-03,3.352838849112327324e-02
3.627505999999999858e+03,-4.203619284215420748e-03,3.073818278459983233e-02
3.629434000000000196e+03,-3.583931225655589969e-03,3.583931225655589969e-03
3.631362999999999829e+03,-2.953367303632603580e-03,1.309350849326007538e-02
3.633291000000000167e+03,-2.312581291011639451e-03,2.746809956877782621e-02
3.635219999999999800e+03,-1.660908472008060244e-03,2.363581585999996459e-02
3.637148000000000138e+03,-9.990245053188573365e-04,2.392171968949441396e-02
3.639077000000000226e+03,-3.262427893311325988e-04,2.561526215048304245e-02
3.641005000000000109e+03,3.567391314120982315e-04,2.726959762681813171e-02
3.642934000000000196e+03,1.050629744387521214e-03,2.426075629042068194e-02
3.644862000000000080e+03,1.754709619195438108e-03,2.761238341218774650e-02
3.646791000000000167e+03,2.469709129147901194e-03,2.468483060664572459e-02
3.648719000000000051e+03,3.194886958016951439e-03,9.964405695928713058e-03
3.650648000000000138e+03,3.930995364957112770e-03,-9.981652817809827383e-04
3.652576000000000022e+03,4.677271147887296365e-03,8.401291793330378788e-03
3.654505000000000109e+03,5.434488451808050513e-03,2.417898746906987917e-02
3.656432999999999993e+03,6.201862188799367459e-03,1.667575016878786176e-02
3.658362000000000080e+03,6.980188389707819852e-03,1.569367755004202891e-02
3.660289999999999964e+03,7.768660080760270148e-03,2.505303559268634572e-02
3.662219000000000051e+03,8.568095178649315358e-03,2.632531364220758174e-02
3.664146999999999935e+03,9.377664823766451718e-03,2.488353598702541802e-02
3.666076000000000022e+03,1.019820881863964246e-02,2.418600869726172942e-02
3.668003999999999905e+03,1.102887641781080674e-02,2.302857797514379357e-02
3.669932999999999993e+03,1.187052930967169573e-02,4.571072703328904474e-03
3.671860999999999876e+03,1.272229486290754608e-02,3.111912168615504903e-03
3.673789999999999964e+03,1.358505665174547516e-02,2.461547455675394680e-02
3.675717999999999847e+03,1.445792015904601158e-02,2.728771670128526949e-03
3.677646999999999935e+03,1.534179084487163891e-02,-5.829663913998639480e-03
3.679574999999999818e+03,1.623575230622975596e-02,3.436785612271675561e-03
3.681503999999999905e+03,1.714073188903597611e-02,5.893796663420936000e-03
3.683431999999999789e+03,1.805579130445877922e-02,1.120960325764375209e-02
3.685360999999999876e+03,1.898187978425269762e-02,1.416762744996835632e-02
3.687289000000000215e+03,1.991803715373308137e-02,1.496279041319226177e-02
3.689217999999999847e+03,2.086523453050759258e-02,-6.758503559654238657e-03
3.691146000000000186e+03,2.182248985405266239e-02,-1.358875811434478997e-02
3.693074999999999818e+03,2.279079612781131914e-02,-1.418041532158853535e-03
3.695003000000000156e+03,2.376914940541752230e-02,9.111608265652604288e-03
3.696931999999999789e+03,2.475856457615677186e-02,1.027533491360343998e-02
3.698860000000000127e+03,2.575801580782410838e-02,1.170231829436363391e-02
