baseline wavenumber (cm-1),baseline absorbance (cm-1),baseline-subtracted absorbance (cm-1)
3199.379,0.186012331952,1.66533453694e-14
3201.308,0.184094389936,-0.000349317662611
3203.236,0.182187287899,-0.00155957133213
3205.165,0.180289047521,-0.0020124883374
3207.093,0.178401636908,-0.00164483917214
3209.021,0.176524069454,-0.00164435652605
3210.95,0.174655378977,-0.00132221411335
3212.878,0.172797502948,0.000683241012724
3214.807,0.170948514108,0.00104430910047
3216.736,0.169109378641,0.00115090640938
3218.664,0.167281042299,0.00133161311363
3220.593,0.165461608469,-1.53333252377e-05
3222.521,0.163652963552,-0.000286947176487
3224.449,0.161854161793,0.000936700432487
3226.378,0.160064277865,0.00157374902261
3228.306,0.158285167531,0.0018149032266
3230.235,0.156514985239,0.00206835651735
3232.164,0.154754656321,0.00356031385995
3234.092,0.153005085675,0.00301280576361
3236.021,0.151264458394,0.00280963439937
3237.949,0.149534579171,0.00326740202773
3239.877,0.147814543108,0.00377547003272
3241.806,0.146103465728,0.00245207859589
3243.734,0.144403121089,0.00276154079318
3245.663,0.142711745347,0.00361343407315
3247.592,0.141030222977,0.00345880967242
3249.52,0.139359418026,0.00430529439705
3251.448,0.137698456234,0.00635390402068
3253.377,0.136046483766,0.00726747559911
3255.305,0.134405213398,0.00820269118095
3257.234,0.132772942567,0.0067762336179
3259.162,0.131151363623,0.00584145958531
3261.091,0.129538794429,0.00630372048009
3263.02,0.127936078608,0.00690876117724
3264.948,0.126344039353,0.00621079740068
3266.876,0.124761843256,0.0079501753431
3268.805,0.123188677337,0.00877179976833
3270.733,0.121626172664,0.00972175010987
3272.662,0.120072708382,0.0112929036671
3274.591,0.118529097472,0.0113647668762
3276.519,0.116996132488,0.010459644324
3278.448,0.115472223216,0.0106255226653
3280.376,0.113958949655,0.0111138290776
3282.304,0.112455519253,0.0124757452771
3284.233,0.110961159883,0.0120647169997
3286.161,0.109477420905,0.0125735242075
3288.09,0.108002763172,0.0126583103144
3290.019,0.106537958811,0.0122505785384
3291.947,0.105083759522,0.0132261565804
3293.875,0.103639403392,0.014854986581
3295.804,0.102204148933,0.0152859956139
3297.732,0.100779484226,0.0155588357978
3299.661,0.0993639314047,0.0154243027002
3301.589,0.0979589581222,0.0179244948244
3303.518,0.0965631069376,0.0194729791839
3305.447,0.0951771091257,0.0191623227959
3307.375,0.0938016755315,0.0182588723307
3309.303,0.0924360850965,0.0187657748044
3311.232,0.0910796371863,0.018290624615
3313.16,0.0897337381751,0.0194308226254
3315.089,0.0883969919021,0.0192629696869
3317.017,0.0870707843147,0.0192998818128
3318.946,0.0857537396789,0.0201827810933
3320.875,0.0844465484157,0.0204816836676
3322.803,0.0831498805167,0.0208665957797
3324.731,0.0818630557769,0.0225628008895
3326.66,0.0805854144154,0.0218415541482
3328.588,0.0793182810994,0.0228620484265
3330.517,0.0780603413751,0.0226568323841
3332.445,0.0768128994829,0.0235691888624
3334.374,0.0755746613958,0.0237010891348
3336.302,0.0743469109274,0.0223310431816
3338.231,0.0731283744775,0.021795308935
3340.159,0.0719203154329,0.022566695585
3342.088,0.0707214806202,0.023012978088
3344.016,0.0695331129993,0.0252591643685
3345.945,0.0683539798238,0.0253142704542
3347.873,0.0671853036267,0.0258274326515
3349.802,0.0660258720884,0.0264314209471
3351.73,0.0648768873151,0.0276087085608
3353.659,0.0637371574139,0.0271048520877
3355.587,0.0626078640645,0.0261235621965
3357.516,0.0614878358005,0.0268079288816
3359.444,0.0603782338748,0.0282323999067
3361.373,0.059277907248,0.0284336059431
3363.302,0.0581874339938,0.0277465597391
3365.23,0.0571073717565,0.0265002295778
3367.158,0.0560371526784,0.0296946779089
3369.087,0.054976229326,0.0306706927401
3371.015,0.0539257016716,0.030082182691
3372.944,0.0528844799564,0.0294414070344
3374.872,0.0518536437259,0.0293997677772
3376.801,0.0508321236478,0.0298830284799
3378.729,0.0498209788411,0.0298904332685
3380.658,0.0488191604002,0.0302973866532
3382.586,0.0478277070173,0.0308385216292
3384.515,0.0468455902136,0.0292142500775
3386.443,0.0458738282544,0.0294415462528
3388.372,0.044911413088,0.029568016812
3390.3,0.0439593425526,0.0311361795337
3392.229,0.0430166290233,0.0314102384588
3394.157,0.0420842499117,0.0314359158621
3396.086,0.0411612380196,0.0309195261571
3398.014,0.0402485503318,0.0314511363153
3399.943,0.0393452400769,0.0303631395855
3401.871,0.0384522438129,0.029647422618
3403.8,0.0375686351951,0.029276103509
3405.728,0.0366953303549,0.0296429896694
3407.657,0.0358314233743,0.0284999220214
3409.585,0.0349778099579,0.0290098580902
3411.514,0.0341336046145,0.027892070105
3413.442,0.0332996826219,0.0278319255859
3415.371,0.0324751789157,0.0258387804495
3417.299,0.0316609483469,0.0253697804513
3419.228,0.0308561462778,0.0257500399144
3421.156,0.0300616071328,0.0250349257693
3423.085,0.029276506701,0.0223241200048
3425.013,0.0285016589797,0.0204890415156
3426.942,0.0277362601851,0.0190079023541
3428.87,0.0269811038876,0.0200622601071
3430.799,0.0262354067302,0.0194317316505
3432.727,0.0254999418565,0.018162748935
3434.656,0.0247739463362,0.0169393863233
3436.584,0.0240581728863,0.0155688361099
3438.513,0.0233518790032,0.0117613323583
3440.441,0.0226557969771,0.00942142934451
3442.37,0.0219692047312,0.00896832685676
3444.298,0.0212928141289,0.00978471543744
3446.227,0.0206259235202,0.00911126439044
3448.155,0.0199692243417,0.0104517804091
3450.084,0.0193220353702,0.0117570104198
3452.012,0.0186850276154,0.0137560923684
3453.941,0.0180575402811,0.0127763826948
3455.869,0.0174402239502,0.0123924860468
3457.798,0.016832438253,0.0104151105189
3459.726,0.0162348133458,0.0102268261973
3461.655,0.0156467292859,0.0112738205979
3463.583,0.0150687958025,0.0128787428612
3465.512,0.0145004133797,0.0127648246674
3467.44,0.0139421713202,0.0139103506651
3469.369,0.0133934905346,0.0123085209887
3471.297,0.0128549398988,0.0115800141091
3473.226,0.0123259607504,0.0111229425146
3475.154,0.0118071015384,0.0111010153119
3477.083,0.0112978240271,0.0110356440816
3479.011,0.0107986562389,0.0121539365034
3480.94,0.0103090803649,0.0129508003589
3482.868,0.00982960400049,0.0146715584376
3484.797,0.00935972976362,0.0150681485342
3486.725,0.00889994482301,0.0180595214663
3488.654,0.00844977222332,0.0185334482356
3490.582,0.0080096787065,0.0190635043522
3492.511,0.007579207744,0.0193752044666
3494.439,0.00715880565097,0.0210510396942
3496.368,0.00674803632566,0.0228461211594
3498.296,0.00634732565642,0.0240357735046
3500.225,0.00595625796829,0.0245592580531
3502.153,0.00557523872284,0.027795831731
3504.082,0.0052038726719,0.0289106527501
3506.01,0.00484254485024,0.0288272216513
3507.939,0.00449088043648,0.0303908541233
3509.867,0.00414924403861,0.0362045414663
3511.796,0.00381728126203,0.0375710741408
3513.724,0.00349533628796,0.0361417808656
3515.653,0.00318307514857,0.034887783034
3517.581,0.00288082159828,0.035324980484
3519.51,0.00258826209608,0.0360435988157
3521.438,0.00230569996958,0.0389527656121
3523.367,0.00203284210455,0.0423303439866
3525.295,0.00176997140185,0.0429945085335
3527.224,0.00151681517401,0.0405321083072
3529.152,0.0012736358951,0.0438648458597
3531.081,0.00104018130445,0.0448094093152
3533.009,0.000816693449327,0.0436920501067
3534.938,0.000602940495856,0.0419246042327
3536.866,0.000399144064524,0.0427227603123
3538.795,0.000205092748239,0.0422971815872
3540.723,2.09877406974e-05,0.0428583208613
3542.652,-0.000153361938402,0.0407583351518
3544.58,-0.000317775522152,0.0419027345841
3546.509,-0.000472423564066,0.0442644987688
3548.437,-0.000617145724025,0.044036229925
3550.366,-0.000752092128756,0.0428237589639
3552.294,-0.000877122864928,0.0464254903975
3554.223,-0.000992367632474,0.050707823005
3556.151,-0.00109770694485,0.0532866284045
3558.08,-0.00119325007521,0.0556858205796
3560.008,-0.0012788979638,0.0628148324629
3561.937,-0.00135473945697,0.0717585603404
3563.865,-0.00142069592177,0.077774178182
3565.794,-0.00147683577777,0.0764925034216
3567.722,-0.00152310081877,0.0733577313656
3569.651,-0.00155953903758,0.0716131122712
3571.579,-0.0015861126548,0.0694922078736
3573.508,-0.00160284923642,0.0655834415744
3575.436,-0.00160973142984,0.0602153111327
3577.365,-0.00160676637428,0.0539088991955
3579.293,-0.00159395714391,0.0516748224022
3581.222,-0.00157129045117,0.0516359826578
3583.15,-0.00153878979701,0.0526183409948
3585.079,-0.00149642146708,0.0526775596456
3587.007,-0.00144422938914,0.0583688225358
3588.936,-0.00138215942202,0.0687307897667
3590.864,-0.00131027592028,0.0746954977943
3592.793,-0.00122850431598,0.0844080251893
3594.721,-0.00113692939046,0.103185852872
3596.65,-0.00103545614897,0.120083267733
3598.578,-0.000924189799651,0.125601234174
3600.507,-0.000803014920979,0.111389793451
3602.435,-0.00067205714787,0.0824288548836
3604.364,-0.000531180632017,0.0592135823302
3606.292,-0.000380531435116,0.0472535729796
3608.221,-0.000219953282077,0.0420571108682
3610.149,-4.96126613889e-05,0.0419747112159
3612.078,0.00013066712884,0.0378835853729
3614.006,0.000320699173315,0.0388736806912
3615.935,0.000520680600726,0.0348290616413
3617.863,0.000730404068996,0.031546458359
3619.792,0.000950087133592,0.0355348011713
3621.72,0.00117950202565,0.0368094800829
3623.649,0.00141888672744,0.0319365160826
3625.577,0.00166799304328,0.0289880263644
3627.506,0.00192707938225,0.0242955022411
3629.434,0.00219587712189,0.0314486189865
3631.363,0.00247466509804,0.0324596318796
3633.291,0.00276315426147,0.029095230455
3635.22,0.0030616438748,0.0280012288635
3637.148,0.00336982446203,0.0267186219142
3639.077,0.00368801571255,0.0278095077889
3641.005,0.00401588772356,0.0267078563379
3642.934,0.00435378061126,0.0257119224111
3644.862,0.00470134404607,0.0239365817601
3646.791,0.00505893857095,0.0224539493296
3648.719,0.00542619342955,0.0246167662389
3650.648,0.00580348959162,0.0279623044041
3652.576,0.00619043587401,0.0256457108964
3654.505,0.00658743367327,0.0183837580785
3656.433,0.00699407137944,0.0217019763311
3658.362,0.00741077081588,0.0209577725987
3660.29,0.00783709994585,0.0183880087168
3662.219,0.00827350101947,0.0182412063494
3664.147,0.00871952157323,0.0171811152407
3666.076,0.00917562428404,0.0145456938197
3668.004,0.00964133626159,0.0124439765859
3669.933,0.0101171406096,0.0156975768674
3671.861,0.0106025440109,0.0187267797534
3673.79,0.0110980499961,0.00972576482245
3675.718,0.0116031448212,0.015051560526
3677.647,0.0121183524436,0.0166600767488
3679.575,0.0126431386925,0.0128637853952
3681.504,0.0131780479521,0.0113782039432
3683.432,0.0137225256248,0.00856040169757
3685.361,0.0142771365215,0.00581636393335
3687.289,0.014841305618,0.00103304998696
3689.218,0.0154156181519,0.0037282209262
3691.146,0.0159994786722,0.00984606868449
3693.075,0.0165934928433,0.00863191906408
3695.003,0.0171970447874,0.00524811845933
3696.932,0.0178107605957,0.00121582385795
3698.86,0.0184340039636,0.000592580490081
