baseline wavenumber (cm-1),baseline absorbance (cm-1),baseline-subtracted absorbance (cm-1)
3199.3790000000004,0.1844738589501631,1.1379786002407855e-15
3201.308,0.182549839496442,0.000918148201887542
3203.236,0.18063666317268456,0.0017396910595094683
3205.165,0.17873234535614912,0.0021367746550342293
3207.093,0.1768388604561828,0.0011692824109451327
3209.0209999999997,0.17495521871542508,0.001549429358944171
3210.95,0.17308045080065781,0.0026870755850275374
3212.8779999999997,0.1712165004836912,0.004093068258882421
3214.8070000000002,0.16936143420610605,0.004398228895871964
3216.736,0.16751622130112764,0.0038001972352531277
3218.664,0.16568181067253107,0.003970981666883172
3220.593,0.16385629940473478,0.005007892948658693
3222.5209999999997,0.16204158019993287,0.005011785285493869
3224.449,0.160236704154336,0.005247848861670207
3226.3779999999997,0.1584407427883079,0.006188564543767344
3228.3059999999996,0.15665555816650212,0.007727086692657731
3230.235,0.15487929843765258,0.007924993167855249
3232.164,0.15311289208141332,0.008529975046565996
3234.092,0.15135724714798116,0.00909410533681651
3236.0209999999997,0.14961054242892402,0.009426257738826022
3237.949,0.14787458891928296,0.009419637683079574
3239.877,0.1461484785688505,0.010354282317428964
3241.8059999999996,0.14443132375155798,0.010548651085934169
3243.7340000000004,0.14272490482491307,0.010996979567342469
3245.663,0.1410274516448098,0.011126983247201128
3247.592,0.13933985183730613,0.01209325782929066
3249.52,0.13766297259903482,0.013601757952443477
3251.448,0.13599593651997566,0.014672477543070439
3253.377,0.13433788661423662,0.013918526330475772
3255.305,0.13269054195896857,0.014064018745581663
3257.2340000000004,0.1310521936904152,0.013601682034754314
3259.1620000000003,0.1294245404589347,0.014334179048998474
3261.091,0.12780589382756702,0.015616661564898188
3263.02,0.1261971005688025,0.016236288681214933
3264.948,0.1245989870256956,0.015053141303094514
3266.8759999999997,0.1230107166417973,0.01620550618618896
3268.805,0.12143147328480097,0.01774655145833179
3270.7329999999997,0.11986289432469377,0.017827467036877515
3272.6620000000003,0.11830335260487601,0.017546091723075363
3274.591,0.11675366425766498,0.01870331484347429
3276.5190000000002,0.11521462498593138,0.019206532489430356
3278.448,0.11368463827590602,0.019622414215881234
3280.3759999999997,0.11216529042795997,0.020259396788088108
3282.304,0.11065578573922608,0.02057553459347819
3284.2329999999997,0.10915534893096535,0.02025937812572018
3286.1609999999996,0.107665535666019,0.02117793256631484
3288.09,0.10618480049494394,0.02207175224147878
3290.0190000000002,0.10471391869647206,0.022670263871501645
3291.947,0.10325364511989932,0.02325453269515626
3293.875,0.10180321470253517,0.024659111431525077
3295.804,0.10036188280582792,0.02473901186111832
3297.732,0.09893114381225487,0.024691698153216562
3299.6609999999996,0.09750951355273685,0.02447790519333151
3301.5890000000004,0.09609846598295135,0.025100143089530652
3303.518,0.09469653736061545,0.02560135877414374
3305.447,0.09330446211088272,0.02614710006148044
3307.375,0.09192295422947083,0.026573516029842786
3309.303,0.09055128950726754,0.027768344238451342
3311.232,0.08918876415930299,0.027627899012570928
3313.16,0.08783679086089435,0.027707103736156063
3315.0890000000004,0.08649396715010838,0.02796098497123084
3317.0170000000003,0.08516168527548729,0.02946185564853593
3318.946,0.08383856320189054,0.030709455250615247
3320.875,0.08252529450089696,0.030592829494350132
3322.803,0.08122255231464948,0.030059232825491722
3324.7309999999998,0.07992965328761059,0.03040665061956771
3326.66,0.07864593448838164,0.030153778938612125
3328.5879999999997,0.07737272688513386,0.02941129492237296
3330.5170000000003,0.07610870972309058,0.02960338924944031
3332.445,0.07485519354363035,0.029649769062087133
3334.3740000000003,0.07361087801877275,0.02990149354759336
3336.302,0.07237705326310362,0.03199762346856619
3338.2309999999998,0.07115243937542814,0.03324561751979799
3340.159,0.06993830604355367,0.0332425145337861
3342.0879999999997,0.06873339379306387,0.03260196652006958
3344.0159999999996,0.06753895188497694,0.03279252920819423
3345.945,0.06635374127167282,0.032748166885173485
3347.873,0.06517899078737699,0.03282999083001309
3349.802,0.06401348181125499,0.03248361751075521
3351.73,0.06285842275075026,0.03319354481757292
3353.659,0.061712615411817495,0.03399050194332334
3355.587,0.06057724777510032,0.03526062878881947
3357.5159999999996,0.059451142073353225,0.03541325996760575
3359.4440000000004,0.05833546586042715,0.036074368486396086
3361.373,0.05722906179586218,0.036482827489103226
3363.302,0.05613251110389683,0.035355676496578475
3365.23,0.05504637457934791,0.03459090088021735
3367.158,0.05397008121400404,0.03588544405334759
3369.087,0.05290308042380687,0.03666849293189314
3371.015,0.05184647848225765,0.036655758185107995
3372.9440000000004,0.050799179329242605,0.03595870142842847
3374.8720000000003,0.04976226881148449,0.036240701762360494
3376.801,0.04873467129565512,0.036517163470543235
3378.7290000000003,0.04771745220168455,0.03485468032085687
3380.658,0.04670955632304086,0.035318996133798464
3382.586,0.04571202865286139,0.036656567139408125
3384.515,0.044723834411403374,0.035286265539669515
3386.4429999999998,0.04374599816501146,0.03570671728896213
3388.3720000000003,0.042777505560739115,0.03552559781523068
3390.3,0.04181936073814185,0.03521397958477701
3392.2290000000003,0.040870569771051635,0.03509318922803972
3394.157,0.039932116372245474,0.03541481170491953
3396.086,0.03900302704234093,0.03622189781961477
3398.014,0.03808426506732232,0.03642534561276434
3399.9429999999998,0.037174877374603454,0.03577783807937013
3401.8709999999996,0.036275806823375945,0.03567785222464251
3403.8,0.035386120767842755,0.035475240803416075
3405.728,0.034506741640406347,0.03598644351371402
3407.657,0.03363675722205528,0.0355125752725278
3409.585,0.032777069518409974,0.03543237341162425
3411.514,0.031926786737244583,0.03472390872651443
3413.442,0.03108679045739038,0.033991038577347865
3415.3709999999996,0.030256209313407112,0.032742847092548016
3417.2990000000004,0.02943590445734401,0.03208862898782269
3419.228,0.02862502495054642,0.031387276719964524
3421.156,0.027824411518274417,0.03140180641700205
3423.085,0.027033233648662502,0.030454569524609315
3425.013,0.02625231164017805,0.029321079007756545
3426.942,0.025480835407751812,0.027474466192863256
3428.87,0.02471960482305846,0.025080213447718075
3430.7990000000004,0.0239678302278179,0.023361588937625605
3432.7270000000003,0.02322629106691565,0.023275421381536154
3434.656,0.022494218108860764,0.022565717586952472
3436.5840000000003,0.021772370371746064,0.02223675103735437
3438.513,0.021059999050876854,0.021485747786335718
3440.441,0.02035784273755681,0.020212682180315578
3442.37,0.01966517305386617,0.018707686385569078
3444.298,0.018982708164337225,0.01877405425965105
3446.2270000000003,0.018309740117835815,0.01803124681163927
3448.155,0.01764696665209442,0.019831260789018326
3450.0840000000003,0.016993700242775134,0.020938186246356072
3452.012,0.016350618200828393,0.020029789990965843
3453.941,0.01571705342869123,0.019190509302838804
3455.869,0.01509366281053559,0.019148072004589872
3457.798,0.014479799675584104,0.019600405818230124
3459.7259999999997,0.013876100481216014,0.019845364535908475
3461.655,0.013281938983450203,0.018508792826153503
3463.583,0.012697931212873215,0.01903621990196569
3465.512,0.01212347135229308,0.019861850518120006
3467.44,0.011559155005507193,0.02020201085735715
3469.369,0.011004396782112735,0.01955050641212787
3471.297,0.01045977185911795,0.01975023023775771
3473.2259999999997,0.009924715272909168,0.019719270188752955
3475.1540000000005,0.009399781773701932,0.020419397648958296
3477.083,0.008884426824678826,0.02033564027534214
3479.011,0.008379184749262691,0.02125892946056465
3480.94,0.00788353143742171,0.02321481203081062
3482.868,0.007397980785796676,0.02490470321504208
3484.797,0.00692202911114137,0.024228107185776213
3486.725,0.006456169883307439,0.02437698871038796
3488.6540000000005,0.005999919845834256,0.02392004939998947
3490.5820000000003,0.0055537520417914266,0.024981859896420655
3492.511,0.00511720364150392,0.02593371548899165
3494.4390000000003,0.004690727261252192,0.02699683826611203
3496.368,0.004273880498150362,0.02796530311826119
3498.296,0.003867095541686183,0.029238167616208552
3500.225,0.003469950415770029,0.029688188956565206
3502.153,0.0030828568831005043,0.03061568229352632
3504.0820000000003,0.0027054133943664738,0.03221798074836087
3506.01,0.002338011285484498,0.03286454690281494
3507.9390000000003,0.0019802694339361437,0.034202473279420956
3509.867,0.0016325587488488225,0.039881665057679455
3511.796,0.0012945185344861443,0.04100145546425574
3513.724,0.0009664992731828193,0.037466470601703605
3515.653,0.0006481606960058173,0.03580333158050218
3517.5809999999997,0.0003398328584971466,0.03594237165677509
3519.51,4.119591850582083e-05,0.03709559027007321
3521.438,-0.00024744049521530087,0.03819970162613025
3523.367,-0.0005263757980245032,0.03857582711556137
3525.295,-0.0007953207879509705,0.0389435698967788
3527.224,-0.0010545544535744966,0.0405378493441875
3529.152,-0.001303808019713415,0.042647031616554115
3531.0809999999997,-0.0015433400481548176,0.042077064798277136
3533.009,-0.0017729021904990816,0.04246584969871184
3534.938,-0.001992732581754808,0.04235031977683415
3536.866,-0.002202603300311523,0.043273932020518435
3538.795,-0.0024027320543815733,0.042035044908229346
3540.723,-0.0025929113491471867,0.04044130723927092
3542.652,-0.0027733384660351135,0.039365775734505115
3544.58,-0.002943826337009625,0.04085823886234688
3546.509,-0.003104551816708323,0.0423763069016318
3548.437,-0.0032553482638952858,0.04216022000500105
3550.366,-0.00339637210641186,0.041681931622732565
3552.2940000000003,-0.0035274771298041685,0.04443151012064783
3554.223,-0.0036487993351350667,0.04706516894441723
3556.151,-0.0037602129347362734,0.04987141724032096
3558.08,-0.003861833502885048,0.05372717913788888
3560.008,-0.003953555678695153,0.059923570356824774
3561.937,-0.004035474609658252,0.06401205949817437
3563.865,-0.004107505361680808,0.06601045496676922
3565.7940000000003,-0.00416972265545823,0.06478068232554979
3567.722,-0.0042220619836896844,0.06317802759492896
3569.651,-0.004264577640281431,0.05920191600611632
3571.579,-0.004297225544721783,0.054933417618531794
3573.508,-0.004320039564131406,0.050954728877055155
3575.4359999999997,-0.004332996044780657,0.04857287861974394
3577.365,-0.0043361084270046035,0.04537860510695149
3579.2929999999997,-0.004329373483866306,0.04338144589597226
3581.222,-0.004312784228904576,0.043479625635209185
3583.15,-0.004286357861971624,0.04461420437067365
3585.079,-0.0042500669698277704,0.04520599763313943
3587.007,-0.0042039491791037165,0.0517476690365162
3588.9359999999997,-0.004147956649774187,0.06321890094277763
3590.864,-0.004082147435262584,0.07039451201204319
3592.7929999999997,-0.004006453268747379,0.08045913377479338
3594.7209999999995,-0.003920952630441121,0.09939212059018113
3596.65,-0.0038255568267437923,0.11917007349690525
3598.578,-0.003720364764649986,0.12506732778974258
3600.507,-0.003605267323763428,0.11018931708961233
3602.435,-0.00348038383787852,0.08214809894237282
3604.364,-0.0033455847598098387,0.05841576019840633
3606.292,-0.003201009850137382,0.04510088403759807
3608.2209999999995,-0.003046509134883024,0.03822610653475721
3610.1490000000003,-0.0028822428014194656,0.03356348275389029
3612.078,-0.002708040448979432,0.027742743741074202
3614.006,-0.002524082691721219,0.02722573223390337
3615.935,-0.0023301787020990616,0.027621434730616568
3617.863,-0.0021265295210532997,0.02625436904016984
3619.792,-0.0019129238942454663,0.025928161190673787
3621.72,-0.0016895832894086027,0.02817210932561466
3623.6490000000003,-0.001456276025415093,0.02637467261449737
3625.577,-0.0012132439967871278,0.024001564399387276
3627.506,-0.0009602350956114947,0.020340992766681595
3629.434,-0.0006975116431924278,0.024042203052991817
3631.363,-0.0004248011048275657,0.024906628182481863
3633.2909999999997,-0.00014238622862094985,0.02293420142397988
3635.22,0.00015002594692603566,0.022898831255841856
3637.1479999999997,0.0004521322469273059,0.02136040706949123
3639.077,0.0007642460596564149,0.020804251878415864
3641.005,0.0010860437834487868,0.020865064065855754
3642.934,0.0014178592333671247,0.019472229534368946
3644.862,0.0017593483809470456,0.016457188978387563
3646.7909999999997,0.002110865468047507,0.011866488274875533
3648.719,0.0024720460394185295,0.010492866241283233
3650.6479999999997,0.0028432647637011144,0.015849752640366824
3652.5759999999996,0.0032241367588667913,0.01790139619702895
3654.505,0.0036150571203350523,0.01504021652193796
3656.433,0.004015620539288278,0.016165654361110143
3658.362,0.0044262425379422154,0.015950111694251826
3660.29,0.004846497380686543,0.014092693225310524
3662.219,0.005276821016526156,0.013990810212941948
3664.147,0.005716767283058033,0.01396517162796454
3666.0759999999996,0.006166792556086875,0.0123387991123272
3668.0040000000004,0.0066264302464098535,0.012400165126484536
3669.933,0.0070961571566172665,0.01395081285806088
3671.861,0.007575486270731346,0.01231939036308427
3673.79,0.008064914818127988,0.00785757067848207
3675.718,0.008563935356029617,0.010357990973739045
3677.647,0.009073065540611935,0.009615723164217882
3679.575,0.009591777502308219,0.00707111478817897
3681.5040000000004,0.010120609324069108,0.006602043922593379
3683.4320000000002,0.010659012709556492,0.006651988898048175
3685.361,0.011207546168503058,0.004963628780822446
3687.289,0.011765640977781544,0.0015192195799873798
3689.218,0.012333876073913785,0.0035180845048239096
3691.1459999999997,0.012911662306983374,0.007461965986858804
3693.075,0.013499599040297738,0.0050469515992493524
3695.0029999999997,0.014097076697158428,0.0024308117490567244
3696.9320000000002,0.014704715067662022,0.001538592404204911
3698.86,0.01532188414831026,0.0009214233235566721
