baseline wavenumber (cm-1),baseline absorbance (cm-1),baseline-subtracted absorbance (cm-1)
3199.379,0.201445466491,1.59872115546e-14
3201.308,0.199463931862,0.00111172769504
3203.236,0.197493270179,0.00274831478003
3205.165,0.195531437187,0.00415723156869
3207.093,0.193580466928,0.00335120192918
3209.021,0.191639339827,0.00253583453832
3210.95,0.189707056737,0.00435187381984
3212.878,0.187785621061,0.00689243412983
3214.807,0.185873039608,0.00634620632384
3216.736,0.183970311527,0.0104135962865
3218.664,0.182078415539,0.0117834059508
3220.593,0.180195389096,0.00408137225059
3222.521,0.178323184532,0.00353166232985
3224.449,0.176460823127,0.00719984603348
3226.378,0.174607346585,0.00691039323102
3228.306,0.172764676604,0.00790751585555
3230.235,0.170930901699,0.010853188061
3232.164,0.169106980168,0.0126675068433
3234.092,0.167293849875,0.0125065140189
3236.021,0.16548962998,0.0125519145462
3237.949,0.163696191111,0.0108610715998
3239.877,0.161912595401,0.0105522787522
3241.806,0.160137925408,0.00731279732475
3243.734,0.158374021122,0.00891648731789
3245.663,0.156619052767,0.0156835854622
3247.592,0.154873937784,0.0216721048726
3249.52,0.153139573186,0.0175998385192
3251.448,0.151415051748,0.0135990996726
3253.377,0.149699486666,0.0127032223198
3255.305,0.147994656652,0.0152065967599
3257.234,0.146298793208,0.0219176224398
3259.162,0.144613654617,0.0212975957624
3261.091,0.14293749281,0.0142928720947
3263.02,0.141271184376,0.0122024838747
3264.948,0.139615585473,0.0113098163263
3266.876,0.13796982973,0.014126096683
3268.805,0.136333071197,0.0149334809104
3270.733,0.134707006878,0.0136069524876
3272.662,0.133089949982,0.0148348453275
3274.591,0.13148274646,0.0202715242369
3276.519,0.129886221828,0.0212549891288
3278.448,0.128298719943,0.0169721786723
3280.376,0.126721886735,0.0165951050769
3282.304,0.125154896687,0.0186548677926
3284.233,0.123596944704,0.016568323668
3286.161,0.122049646079,0.0185396594904
3288.09,0.120511395733,0.0228874721538
3290.019,0.118982998759,0.0232367525807
3291.947,0.117465239823,0.0218595352709
3293.875,0.115957324046,0.0254269880941
3295.804,0.114458476974,0.0291491243607
3297.732,0.112970252621,0.0276321935535
3299.661,0.111491107186,0.0222130270508
3301.589,0.110022574256,0.0201553293118
3303.518,0.108563130459,0.0260552866041
3305.447,0.107113540033,0.0313368794552
3307.375,0.105674546792,0.0339135457983
3309.303,0.104245396711,0.0344177994885
3311.232,0.102825356187,0.0319825888243
3313.16,0.101415897529,0.0272998610877
3315.089,0.100015558643,0.0304686220907
3317.017,0.0986257914091,0.033669265702
3318.946,0.09724515416,0.0328539057813
3320.875,0.0958743702835,0.029897387525
3322.803,0.0945141427378,0.0311029602643
3324.731,0.0931637583514,0.0322360192692
3326.66,0.0918225243766,0.0350975200993
3328.588,0.0904918314139,0.0382163460853
3330.517,0.0891702990764,0.0376794937064
3332.445,0.0878592975375,0.0359883725322
3334.374,0.0865574668371,0.0337735753139
3336.302,0.085266156722,0.0327794310673
3338.231,0.0839840276589,0.0328789057284
3340.159,0.0827124089675,0.0313530918916
3342.088,0.0814499815416,0.0339053201869
3344.016,0.080198054274,0.039917178719
3345.945,0.0789553284852,0.0408425083691
3347.873,0.0777230926415,0.0440443186594
3349.802,0.0765000684899,0.0494111818892
3351.73,0.0752875240699,0.0532392120061
3353.659,0.0740842015555,0.0507758004661
3355.587,0.0728913485593,0.050924480815
3357.516,0.0717077276821,0.0538987617549
3359.444,0.0705345661097,0.0558598541875
3361.373,0.0693706468697,0.0530143728413
3363.302,0.0682165810022,0.0469790118412
3365.23,0.0670729591182,0.0466584671428
3367.158,0.0659391803934,0.0508570391558
3369.087,0.0648146644277,0.053434097323
3371.015,0.0637005771267,0.0534554928217
3372.944,0.0625957627982,0.0499206629574
3374.872,0.061501366921,0.0494386917063
3376.801,0.0604162542297,0.0478916402412
3378.729,0.0593415497763,0.0430454915661
3380.658,0.0582761387221,0.0419831355122
3382.586,0.0572211256925,0.0427156983245
3384.515,0.0561754162756,0.0458254934586
3386.443,0.0551400946697,0.047878201095
3388.372,0.0541140868899,0.0492190779741
3390.3,0.0530984567079,0.0528825399564
3392.229,0.0520921505653,0.0542168558028
3394.157,0.0510962118071,0.0527160797122
3396.086,0.0501096073017,0.0508112458268
3398.014,0.0491333599672,0.0532622733088
3399.943,0.048166457099,0.0579312887819
3401.871,0.0472099011883,0.0620213734503
3403.8,0.0462626999573,0.063014566797
3405.728,0.0453258354704,0.0624205508634
3407.657,0.0443983358766,0.0582924555922
3409.585,0.0434811628135,0.0575008446666
3411.514,0.0425733648568,0.0589893562591
3413.442,0.0416758832175,0.0601819960911
3415.371,0.040787786898,0.0609725486928
3417.299,0.0399099966825,0.0620348127787
3419.228,0.0390416020002,0.0682484010322
3421.156,0.0381835032085,0.0666133228301
3423.085,0.0373348101634,0.0674155183517
3425.013,0.0364964027955,0.067947648554
3426.942,0.0356674113876,0.0601387141558
3428.87,0.0348486954434,0.055358016373
3430.799,0.0340394056727,0.0651003901425
3432.727,0.0332403811523,0.072632458229
3434.656,0.0324507930188,0.0745865060816
3436.584,0.0316714599222,0.0757529816021
3438.513,0.0309015734259,0.0697539405739
3440.441,0.0301419317531,0.0652411674079
3442.37,0.0293917468939,0.0687882793873
3444.298,0.0286517966449,0.0699775372275
3446.227,0.0279213134229,0.0717375362688
3448.155,0.0272010545978,0.0757333434615
3450.084,0.0264902730129,0.0716351692189
3452.012,0.0257897056116,0.0708179968043
3453.941,0.0250986256639,0.0716177394427
3455.869,0.0244177496863,0.0743369253364
3457.798,0.0237463713759,0.0836740268855
3459.726,0.0230851868221,0.0921331493752
3461.655,0.0224335101488,0.0895638617303
3463.583,0.0217920170188,0.0915729885407
3465.512,0.0211600419827,0.0908661381447
3467.44,0.0205382402765,0.0896411795153
3469.369,0.0199259668776,0.0925783290893
3471.297,0.0193238565951,0.0942139984539
3473.226,0.0187312848334,0.0975185888146
3475.154,0.0181488659748,0.10346136348
3477.083,0.0175759958503,0.109033728197
3479.011,0.0170132684154,0.11229684985
3480.94,0.0164600999281,0.123216944447
3482.868,0.015917063917,0.13250050406
3484.797,0.0153835970668,0.127285461864
3486.725,0.0148602524796,0.123888863057
3488.654,0.0143464872666,0.120240089101
3490.582,0.0138428341031,0.119988157507
3492.511,0.0133487705273,0.121777581439
3494.439,0.0128648087876,0.119099206172
3496.368,0.012390446849,0.114431548501
3498.296,0.0119261765331,0.112325819828
3500.225,0.0114715162317,0.114813735967
3502.153,0.0110269373396,0.115899677439
3504.082,0.0105919786754,0.11162170777
3506.01,0.010167091207,0.119059129353
3507.939,0.00975183418,0.133650066154
3509.867,0.00934663813547,0.148879885669
3511.796,0.0089510827456,0.158081162276
3513.724,0.00856557812486,0.162818734015
3515.653,0.00818972437218,0.167631057999
3517.581,0.00782391117524,0.181742954285
3519.51,0.00746775905974,0.196849434916
3521.438,0.00712163728658,0.217014620674
3523.367,0.00678518680827,0.232820595058
3525.295,0.0064587564589,0.236621199065
3527.224,0.00614200761778,0.232693027255
3529.152,0.0058352686922,0.223253480929
3531.081,0.00553822148826,0.205938580291
3533.009,0.00525117398647,0.194631571389
3534.938,0.00497382841972,0.188449804452
3536.866,0.00470647234172,0.185860595282
3538.795,0.00444882841215,0.181645379614
3540.723,0.00420116375795,0.178528544116
3542.652,0.00396322146556,0.173288875977
3544.58,0.00373524823515,0.169166803721
3546.509,0.00351700757995,0.162311861317
3548.437,0.00330872577332,0.144520042042
3550.366,0.0031101867553,0.135118864089
3552.294,0.00292159637247,0.137927488839
3554.223,0.00274275899164,0.150471129616
3556.151,0.00257386003259,0.173764459992
3558.08,0.00241472428895,0.200064806693
3560.008,0.0022655167537,0.238462270571
3561.937,0.00212608264723,0.266750395671
3563.865,0.00199656653577,0.283208629057
3565.794,0.00187683406649,0.29894041045
3567.722,0.00176700937882,0.337819566988
3569.651,0.00166697854673,0.383904637748
3571.579,0.00157684528285,0.412586704702
3573.508,0.00149651608794,0.408008689613
3575.436,0.00142607424785,0.351578575505
3577.365,0.00136544669013,0.272177967845
3579.293,0.00131469627382,0.206962368317
3581.222,0.00127377035329,0.157754835732
3583.15,0.00124271136078,0.123162928991
3585.079,0.00122148707742,0.10311187995
3587.007,0.00121011950871,0.0947926096938
3588.936,0.00120859686254,0.102426296496
3590.864,0.00121692071761,0.117231477139
3592.793,0.00123509970862,0.131449626866
3594.721,0.00126311498748,0.144756798082
3596.65,0.00130099561569,0.157375341188
3598.578,0.00134870231834,0.157791598905
3600.507,0.00140628458372,0.135650725423
3602.435,0.00147368271017,0.099530057308
3604.364,0.00155096661274,0.0775099855757
3606.292,0.00163805616297,0.0696097958536
3608.221,0.00173504170273,0.0668846894203
3610.149,0.00184182267675,0.0601899169371
3612.078,0.00195850985369,0.0535398223004
3614.006,0.0020849822515,0.0469724320819
3615.935,0.00222137106563,0.0421018878043
3617.863,0.00236753488723,0.0366074979643
3619.792,0.00252362533854,0.0407918502503
3621.72,0.00268948058394,0.0483253784073
3623.649,0.00286527267243,0.0422459170577
3625.577,0.00305081934162,0.0333375360612
3627.506,0.00324631306729,0.0308661907233
3629.434,0.00345155116027,0.042678540824
3631.363,0.00366674652314,0.0454781033707
3633.291,0.00389167603991,0.0445900787362
3635.22,0.00412657303995,0.0426393220374
3637.148,0.00437119398051,0.0389442816083
3639.077,0.00462579261774,0.0360681323797
3641.005,0.00489010498209,0.0316276348339
3642.934,0.00516440525651,0.0286549619728
3644.862,0.00544840904465,0.0241280591652
3646.791,0.00574241095625,0.0227342897412
3648.719,0.00604610616818,0.0295563400059
3650.648,0.00635980971697,0.024098089808
3652.576,0.00668319635269,0.015654315019
3654.505,0.00701660153866,0.0101824280782
3656.433,0.00735967959817,0.0056065591565
3658.362,0.00771278642133,0.00774713473505
3660.29,0.00807555590463,0.0107291544967
3662.219,0.00844836436497,0.00818005977331
3664.147,0.00883082527206,0.0105606636595
3666.076,0.00922333536959,0.00969862965619
3668.004,0.00962548770047,0.0161381835823
3669.933,0.0100376994352,0.0297884402596
3671.861,0.0104595431899,0.0212108298012
3673.79,0.0108914565617,0.0170338441559
3675.718,0.0113329917402,0.0201503803411
3677.647,0.0117846067493,0.0105589695168
3679.575,0.0122458333515,0.0069177166333
3681.504,0.0127171499978,0.00413971849507
3683.432,0.0131980680239,0.00224820712019
3685.361,0.0136890863073,0.00327442324491
3687.289,0.0141896957571,0.0105550732715
3689.218,0.0147004156778,0.0134128967654
3691.146,0.0152207165514,-0.00214884755312
3693.075,0.0157511381092,-0.00477772256287
3695.003,0.0162911304066,-0.00129668989314
3696.932,0.0168412536016,0.00426457880512
3698.86,0.0174009373228,0.00370489508391
