baseline wavenumber (cm-1),baseline absorbance (cm-1),baseline-subtracted absorbance (cm-1)
3199.3790000000004,0.23311902914655036,2.120525977034049e-14
3201.308,0.23111193262148433,0.003556198363348251
3203.236,0.22911572229380894,0.0036941924332477005
3205.165,0.22712832740592503,0.0014157034880429298
3207.093,0.22515180850204075,0.0004424076159433854
3209.0209999999997,0.22318513275736507,0.005283270821302699
3210.95,0.22122728777124578,0.004265823992226636
3212.8779999999997,0.2192803034503612,0.003784870939797458
3214.8070000000002,0.2173421601014276,0.005897893718380842
3216.736,0.21541387012509716,0.008068372832895465
3218.664,0.21349642549258618,0.008817997517129306
3220.593,0.21158783715343787,0.006748428311020072
3222.5209999999997,0.209690083944718,0.009318335011037904
3224.449,0.20780217389520317,0.008608251071596268
3226.3779999999997,0.20592313545782304,0.005692608583555303
3228.3059999999996,0.20405491683210286,0.00853416194052592
3230.235,0.2021955800319084,0.008356244249911687
3232.164,0.20034609660431713,0.009503553916406976
3234.092,0.198507417666967,0.011911499646236279
3236.0209999999997,0.1966776358765614,0.01263262832977119
3237.949,0.19485864836299882,0.012339467943704191
3239.877,0.1930495040086484,0.009875878671158661
3241.8059999999996,0.19124927212001097,0.012724303751939808
3243.7340000000004,0.1894598191894481,0.01610154587660348
3245.663,0.18767928893799635,0.01558533327490641
3247.592,0.18590861205914067,0.015427967936665593
3249.52,0.18414869881695495,0.016822675335557785
3251.448,0.18239862873397428,0.01563278595813447
3253.377,0.18065750175689033,0.014814746093812114
3255.305,0.17892712309770076,0.01800451526114452
3257.2340000000004,0.17720569775779893,0.01596068583065427
3259.1620000000003,0.17549501052240046,0.016242492098694106
3261.091,0.1737932868196843,0.018101062100424725
3263.02,0.17210141648957133,0.017780700655881942
3264.948,0.17042026894254292,0.017552887554276808
3266.8759999999997,0.16874896455472665,0.02022083694104465
3268.805,0.1670866441263783,0.019922159256581057
3270.7329999999997,0.16543503116235314,0.017519078713931185
3272.6620000000003,0.16379241237119047,0.018653344950400358
3274.591,0.16215964695263452,0.018822491161575305
3276.5190000000002,0.1605375736769794,0.01706848978845707
3278.448,0.15892450989560558,0.018847800861366504
3280.3759999999997,0.15732212804374157,0.019564322644732568
3282.304,0.15572958935108616,0.016823807587475398
3284.2329999999997,0.15414607547148051,0.013059729379291812
3286.1609999999996,0.1525732282026162,0.012615801642913926
3288.09,0.15100941596018913,0.014521474513005783
3290.0190000000002,0.14945545709036878,0.0174750629347937
3291.947,0.14791214950987808,0.018946552524091276
3293.875,0.14637868508859597,0.017741602183368788
3295.804,0.14485427612054025,0.018780130114170013
3297.732,0.14334050312304925,0.017671795052668915
3299.6609999999996,0.1418357957921792,0.017120760439036292
3301.5890000000004,0.14034171421847574,0.02079999613310038
3303.518,0.13885670852479493,0.024610192292986555
3305.447,0.13738155620371018,0.02739466872115176
3307.375,0.13591701431838032,0.023972441891866397
3309.303,0.13446231559226263,0.0182251066485985
3311.232,0.13301671317294606,0.019950467228256136
3313.16,0.1315817058706159,0.024689626344383736
3315.0890000000004,0.130155805088485,0.02412199249311836
3317.0170000000003,0.12874048920994596,0.02233985258078583
3318.946,0.12733429006500074,0.025778728038025722
3320.875,0.1259379442926587,0.028720016845245833
3322.803,0.1245521681024897,0.025238665056103976
3324.7309999999998,0.12317623507153286,0.020869543218814512
3326.66,0.12180943920095899,0.023064919504569764
3328.5879999999997,0.1204531975937897,0.026586255121664265
3330.5170000000003,0.1191061033603944,0.02891622487054149
3332.445,0.11776955317701976,0.028981089864847848
3334.3740000000003,0.11644216058081369,0.02812182557980697
3336.302,0.1151253018212266,0.030613808404537007
3338.2309999999998,0.11381761086220266,0.027134926357340217
3340.159,0.11252044352641022,0.02248664740809736
3342.0879999999997,0.11123245420457195,0.025172204354175526
3344.0159999999996,0.10995497829256706,0.029512446744128257
3345.945,0.10868669060791447,0.0290908623381958
3347.873,0.10742890611969713,0.031183133441356897
3349.802,0.10618032007223022,0.035587831881358944
3351.73,0.10494222700780753,0.033018243391297775
3353.659,0.10371334259752274,0.0357837182817671
3355.587,0.1024949409568876,0.04269891170264967
3357.5159999999996,0.10128575818379204,0.038433641410812014
3359.4440000000004,0.100087047966948,0.03587097607722614
3361.373,0.09889756683103101,0.03798979250356044
3363.302,0.0977179390677243,0.03637837392591517
3365.23,0.09654876853925032,0.03311593754867864
3367.158,0.09538944116998849,0.033302139874255565
3369.087,0.0942393633084464,0.03718881520556769
3371.015,0.09309972736297212,0.039076756176553984
3372.9440000000004,0.09196935113861215,0.03550761468231467
3374.8720000000003,0.09084940661693253,0.03595201576372031
3376.801,0.08973873202975824,0.03459872166423769
3378.7290000000003,0.08863847893186616,0.033211521068133826
3380.658,0.08754750598187755,0.03529934870463952
3382.586,0.08646694430778012,0.03484667489960086
3384.515,0.08539567299497364,0.032471556333327184
3386.4429999999998,0.08433480274466376,0.033860063404773544
3388.3720000000003,0.08328323306904295,0.03780025403517176
3390.3,0.08224205424252418,0.03974378835200995
3392.2290000000003,0.08121018620408904,0.04165113692444941
3394.157,0.08018869880136137,0.04281737864324614
3396.086,0.07917653240010836,0.04295525274003281
3398.014,0.07817473642117179,0.046576710423030326
3399.9429999999998,0.07718227165710445,0.04821766893141863
3401.8709999999996,0.07620016710195898,0.0484869755554814
3403.8,0.07522740397507377,0.05122100938901372
3405.728,0.0742649908437194,0.05329221541894921
3407.657,0.07331192935401987,0.050227802944854794
3409.585,0.0723692076464566,0.04619561726442617
3411.514,0.07143584779394274,0.04792358814650596
3413.442,0.07051281751016703,0.0509903243085231
3415.3709999999996,0.0695991592948424,0.048922155446193466
3417.2990000000004,0.06869582043485778,0.04692352324306209
3419.228,0.06780186385671527,0.0468972659398878
3421.156,0.06691821642052176,0.048260049463311305
3423.085,0.06604396147956137,0.04858362990926926
3425.013,0.06518000546715896,0.051227064498592045
3426.942,0.06432545216338426,0.04930046172492214
3428.87,0.06348118757477295,0.047515978148299665
3430.7990000000004,0.06264633590818391,0.04934478382341598
3432.7270000000003,0.061821762743363706,0.04921894809748342
3434.656,0.0610066127139568,0.052562685531657216
3436.5840000000003,0.06020173097292769,0.0567972170944519
3438.513,0.05940628258070291,0.05342446111119617
3440.441,0.0586210922634649,0.05557981987744515
3442.37,0.05784534550842935,0.059507694961270785
3444.298,0.05707984661497889,0.05576540046686915
3446.2270000000003,0.05632380149712901,0.057423102116486685
3448.155,0.05557799402746966,0.058446151495700815
3450.0840000000003,0.0548416505468019,0.05931040439134025
3452.012,0.05411553450093365,0.06167540350144282
3453.941,0.05339889265745512,0.06110445884880053
3455.869,0.05269246803537442,0.057847439003138185
3457.798,0.051995527829078014,0.06437110738445379
3459.7259999999997,0.051308794630791965,0.07135877718719924
3461.655,0.05063155606168124,0.0732232318043983
3463.583,0.04996451428718274,0.07507315608396425
3465.512,0.049306977355254133,0.0735598675458432
3467.44,0.04865962700455029,0.07239827821667008
3469.369,0.04802179170980736,0.07788454434946432
3471.297,0.04739413278289106,0.08314420159888009
3473.2259999999997,0.04677599912533381,0.08378187114795899
3475.1540000000005,0.046168031622208616,0.08371177896002382
3477.083,0.04556959960183349,0.08469911151859705
3479.011,0.044981323522499395,0.0870748692502692
3480.94,0.04440259313930994,0.09072073460235497
3482.868,0.04383400848376695,0.09239231080049948
3484.797,0.043274979737763175,0.0965836873482786
3486.725,0.042726086506011285,0.10022487805679012
3488.6540000000005,0.04218675939718963,0.09659303021628626
3490.5820000000003,0.041657557589228844,0.0936882486594606
3492.511,0.04113793211759642,0.09321087965286559
3494.4390000000003,0.04062842173342318,0.09158231077513904
3496.368,0.04012849789897288,0.08896452998947332
3498.296,0.039638678938594296,0.08679987910991344
3500.225,0.03915845674132612,0.08732357652910092
3502.153,0.038688329204738636,0.08982672985725898
3504.0820000000003,0.038227808644656136,0.09304642424833331
3506.01,0.03777737253185265,0.09766946817549338
3507.9390000000003,0.03733655360895938,0.10562996278161865
3509.867,0.036905808919950545,0.11556088221026542
3511.796,0.0364846916342394,0.12027779875508052
3513.724,0.036073638369021666,0.12174047010934555
3515.653,0.03567222272049264,0.12438736000125195
3517.5809999999997,0.03528086087906601,0.1307445777174252
3519.51,0.034899146867722664,0.14170855915031044
3521.438,0.034527476450087136,0.15079442541613217
3523.367,0.034165464075929464,0.15478480152832017
3525.295,0.033813485082081485,0.1631306646348403
3527.224,0.03347117434510949,0.16306635623432716
3529.152,0.03313888677505261,0.1547574541769289
3531.0809999999997,0.03281627767526629,0.1446451363178839
3533.009,0.03250368152900052,0.13334093649015097
3534.938,0.03220077406639632,0.12731176874481498
3536.866,0.03190786934392165,0.12778563383633976
3538.795,0.03162466351850313,0.12732637094015345
3540.723,0.031351450219816,0.12387937734710927
3542.652,0.03108794603158671,0.12499015909177946
3544.58,0.030834424156690687,0.12074567299854802
3546.509,0.03059062160564352,0.10740385312700482
3548.437,0.030356791154538598,0.10065372467687261
3550.366,0.030132690240673554,0.10169081923021481
3552.2940000000003,0.029918551213359734,0.1024384733200854
3554.223,0.029714151936680366,0.1118803437647245
3556.151,0.0295197043331612,0.12810201580383468
3558.08,0.029335006693663956,0.14699514288346613
3560.008,0.02916025051393234,0.16755586397547845
3561.937,0.02899525451162077,0.1871150027051263
3563.865,0.028840189755680257,0.20342306948804656
3565.7940000000003,0.028694895390554365,0.21763644241611368
3567.722,0.02855952205840495,0.22924675808418254
3569.651,0.028433929330464736,0.24948047970007975
3571.579,0.028318247422106424,0.27232154079345233
3573.508,0.028212356331351884,0.2625238182684943
3575.4359999999997,0.02811636584677757,0.22301947325296378
3577.365,0.028030176393208706,0.1763403030923578
3579.2929999999997,0.027953877332432597,0.13956338344900304
3581.222,0.027887389516042305,0.11137066248647395
3583.15,0.027830781879053745,0.08987313578362885
3585.079,0.02778399569985268,0.08016986954093852
3587.007,0.027747079486655224,0.08159732884493068
3588.9359999999997,0.027719994944639836,0.08267617126770374
3590.864,0.02770277015523348,0.09012605140064825
3592.7929999999997,0.027695387250396664,0.10032770983494618
3594.7209999999995,0.02769785388478141,0.11478341053123872
3596.65,0.02771017261713382,0.13283151676568578
3598.578,0.02773233067530967,0.13860166317385506
3600.507,0.027764351044844204,0.11901190882794535
3602.435,0.027806200526811153,0.08909978605318464
3604.364,0.027857922533531365,0.06365084590150044
3606.292,0.027919463439289416,0.05181262225302902
3608.2209999999995,0.027990887083195304,0.04470883682817675
3610.1490000000003,0.028072119412740903,0.04036315353057354
3612.078,0.028163244693828915,0.044888579587991154
3614.006,0.028264168447165616,0.0446128812487874
3615.935,0.028374995365442857,0.04213712807063737
3617.863,0.02849561054257066,0.04129749423131625
3619.792,0.028626139098033576,0.04089569986191609
3621.72,0.028766445698948928,0.03786498996191637
3623.6490000000003,0.028916675891593968,0.03610170322352449
3625.577,0.029076673916300422,0.036794434631962664
3627.506,0.029246605746131138,0.040660114740344006
3629.434,0.029426295194628693,0.038735230631889786
3631.363,0.029615928661645086,0.033831611004252735
3633.2909999999997,0.029815309533937295,0.029683603585514723
3635.22,0.03002464463813226,0.02404510793054042
3637.1479999999997,0.03024371693421557,0.027659858238776674
3639.077,0.030472753675599762,0.03302769715266611
3641.005,0.030711517395470622,0.028033813561403623
3642.934,0.030960255774036938,0.02131020274277301
3644.862,0.0312187109176989,0.02276688704134211
3646.7909999999997,0.03148715093345089,0.029068133193200382
3648.719,0.031765297500903955,0.032173679922734816
3650.6479999999997,0.03205343915384162,0.027747249320331846
3652.5759999999996,0.032351277145082236,0.022448817214322236
3654.505,0.03265912043520558,0.024460188294786717
3656.433,0.03297664985024085,0.022205949576613135
3658.362,0.033304194777546314,0.01600690817904836
3660.29,0.03364141561637268,0.014409220435909406
3662.219,0.03398866218086383,0.013634141341887257
3664.147,0.034345574443477744,0.014903705629213934
3666.0759999999996,0.034712522645154564,0.013306555428515665
3668.0040000000004,0.035089126331559584,0.00990056053500922
3669.933,0.03547577617042208,0.010219684093784237
3671.861,0.0358720712806182,0.011840024197119964
3673.79,0.03627842275666282,0.022782278298764586
3675.718,0.03669440929065004,0.017991615033107547
3677.647,0.03712046240388034,0.0037237711880676455
3679.575,0.03755614036165866,0.003982368759750429
3681.5040000000004,0.03800189511207108,0.006970527478269303
3683.4320000000002,0.03845726449364051,0.008538712999894102
3685.361,0.038922720881238604,0.003214725823171824
3687.289,0.03939778168659913,0.006862262347789624
3689.218,0.03988293971137935,0.01265717701469879
3691.1459999999997,0.04037769194053098,0.01056918371474265
3693.075,0.040882551602496875,0.0036830771107204258
3695.0029999999997,0.041396995255439606,0.0022121436276246187
3696.9320000000002,0.04192155655459118,-0.00018660513221052666
3698.86,0.04245569163132501,-0.0007207402089443593
