baseline wavenumber (cm-1),baseline absorbance (cm-1),baseline-subtracted absorbance (cm-1)
3199.379,0.250228349759,2.42028619368e-14
3201.308,0.248219297128,4.39306625075e-05
3203.236,0.246221131709,0.00190579916422
3205.165,0.244231780715,0.00487369213025
3207.093,0.24225330672,0.00557412041388
3209.021,0.240284675883,0.00640904047924
3210.95,0.238324874792,0.00485342953497
3212.878,0.236375935379,0.00615478384928
3214.807,0.234435835924,0.00908356017536
3216.736,0.232505589842,0.00991259705908
3218.664,0.230586190118,0.00914869490303
3220.593,0.228675645673,0.00706923445515
3222.521,0.226775937373,0.00851811448962
3224.449,0.224886072232,0.0100270472201
3226.378,0.223005077689,0.00941345869189
3228.306,0.221134903972,0.0079157006276
3230.235,0.219273611066,0.00953061064399
3232.164,0.217422171532,0.0114743127061
3234.092,0.215581537503,0.0137007718556
3236.021,0.213749799607,0.0110361093883
3237.949,0.211928857002,0.0134763292703
3239.877,0.210117757556,0.0174887986751
3241.806,0.208315569562,0.0152579958258
3243.734,0.20652416154,0.0164825484625
3245.663,0.204741675182,0.0178194487429
3247.592,0.202969042198,0.0136044532938
3249.52,0.201207173864,0.0114557883222
3251.448,0.19945514869,0.0132793868525
3253.377,0.197712065607,0.0166181224131
3255.305,0.195979731856,0.0161345478673
3257.234,0.19425635041,0.0123755780163
3259.162,0.192543708083,0.0104562220208
3261.091,0.190840028275,0.00967615261556
3263.02,0.189146201839,0.0111679800299
3264.948,0.1874630992,0.0166594631816
3266.876,0.185789839721,0.0214727939548
3268.805,0.184125563187,0.0181598565376
3270.733,0.182471995131,0.0161831387192
3272.662,0.180827420234,0.0176899139376
3274.591,0.17919269871,0.0204525099289
3276.519,0.177568670343,0.0193756576084
3278.448,0.175953650456,0.0169912017144
3280.376,0.174349313512,0.0143669093156
3282.304,0.172754819728,0.0142897039316
3284.233,0.171169349743,0.016712036991
3286.161,0.169594547382,0.0202186908927
3288.09,0.168028779034,0.0192127111454
3290.019,0.166472864059,0.0154859672826
3291.947,0.164927601387,0.0157868390971
3293.875,0.163392181874,0.0200103483563
3295.804,0.1618658168,0.0227887578838
3297.732,0.160350088711,0.0212302216268
3299.661,0.158843425274,0.0193278195709
3301.589,0.157347388609,0.0210637038633
3303.518,0.15586042681,0.0235327373758
3305.447,0.154383318383,0.0229393558326
3307.375,0.152916821406,0.0210894342732
3309.303,0.151460167588,0.0214087427355
3311.232,0.150012609063,0.02588261705
3313.16,0.148575646669,0.0277817657863
3315.089,0.147147789781,0.0249303887327
3317.017,0.145730518811,0.0219157732138
3318.946,0.14432236356,0.022645554242
3320.875,0.142924061682,0.0246796288187
3322.803,0.141536330401,0.0235901112013
3324.731,0.140158442278,0.0221961044473
3326.66,0.138789690302,0.0246908437025
3328.588,0.137431493603,0.0251083470344
3330.517,0.136082443264,0.0218200520181
3332.445,0.134743937989,0.0232931417622
3334.374,0.133414589287,0.0279903872978
3336.302,0.132095775436,0.02681744886
3338.231,0.130786128371,0.0246794828681
3340.159,0.129487005944,0.0267271200086
3342.088,0.128197060516,0.0286628332421
3344.016,0.126917629513,0.0266413276413
3345.945,0.125647385722,0.0275437444938
3347.873,0.124387646142,0.0317993951661
3349.802,0.123137103989,0.0360745406603
3351.73,0.121897055833,0.0353345091351
3353.659,0.120666215317,0.0319147590311
3355.587,0.119445858585,0.0342632698138
3357.516,0.118234719706,0.0370753732554
3359.444,0.117034054398,0.0318339822278
3361.373,0.115842617156,0.0286720609735
3363.302,0.114661033287,0.0295147547887
3365.23,0.113489907667,0.0313661068714
3367.158,0.112328625206,0.0338145564533
3369.087,0.111176591239,0.0361628929298
3371.015,0.110035000202,0.030871479144
3372.944,0.108902667872,0.0249772859971
3374.872,0.107780768258,0.0241014222777
3376.801,0.106668137566,0.0260569620361
3378.729,0.105565929376,0.0321441775647
3380.658,0.10447300032,0.0339341430361
3382.586,0.103390483555,0.0318375866209
3384.515,0.102317256136,0.0317147911135
3386.443,0.101254430794,0.0333515662702
3388.372,0.100200905013,0.0324199099728
3390.3,0.0991577710947,0.0332636659641
3392.229,0.0981239469506,0.0342103998727
3394.157,0.0971005044562,0.0322760594635
3396.086,0.0960863819493,0.0296718832356
3398.014,0.0950826308787,0.0311287341873
3399.943,0.094088210009,0.0357316334243
3401.871,0.0931041503622,0.0362477053728
3403.8,0.0921294311296,0.038871232881
3405.728,0.0911650629066,0.0417344268536
3407.657,0.0902100453112,0.0362234487826
3409.585,0.089265368512,0.034908357636
3411.514,0.0883300525539,0.0396576457756
3413.442,0.0874050671784,0.0417425878156
3415.371,0.0864894528574,0.0375513313741
3417.299,0.0855841589058,0.0374223064608
3419.228,0.084688246222,0.0401990467115
3421.156,0.0838026436942,0.0408721308917
3423.085,0.0829264326475,0.0386829543658
3425.013,0.0820605215435,0.0357288472969
3426.942,0.081204012134,0.0329926398545
3428.87,0.0803577924538,0.0355575636656
3430.799,0.0795209846815,0.044482125684
3432.727,0.0786944564251,0.0438995535002
3434.656,0.07787735029,0.0397997308591
3436.584,0.0770705134573,0.0422501337783
3438.513,0.0762731089594,0.0457258076548
3440.441,0.0754859635505,0.0460653749551
3442.37,0.0747082606898,0.0475875735172
3444.298,0.0739408067047,0.047816584782
3446.227,0.0731828054812,0.0459626827414
3448.155,0.0724350429199,0.0453135067411
3450.084,0.0716967433336,0.045937631448
3452.012,0.0709686721961,0.048279877465
3453.941,0.0702500742469,0.0495993351331
3455.869,0.0695416945332,0.0484363931162
3457.798,0.0688427982212,0.0487958402075
3459.726,0.0681541099313,0.0531125427562
3461.655,0.0674749152565,0.0555315501101
3463.583,0.0668059183904,0.0534211732431
3465.512,0.0661464253527,0.0581752703207
3467.44,0.0654971199104,0.0629647519006
3469.369,0.06485732851,0.0657419935002
3471.297,0.0642277144914,0.0668178226582
3473.226,0.0636076247282,0.0686299163356
3475.154,0.0629977021334,0.0697569634149
3477.083,0.0623973140074,0.070596220626
3479.011,0.0618070828364,0.0725949930705
3480.94,0.0612263963475,0.0757708777141
3482.868,0.0606558566004,0.0801305067183
3484.797,0.0600948717487,0.0799126071078
3486.725,0.0595440234253,0.0815372305064
3488.654,0.0590027402108,0.0790657577273
3490.582,0.0584715833112,0.0788955796161
3492.511,0.0579500017339,0.0786910481019
3494.439,0.0574385362581,0.077664734868
3496.368,0.0569366563179,0.0774728634975
3498.296,0.0564448822659,0.0746496868261
3500.225,0.055962703963,0.073656014147
3502.153,0.0554906213347,0.0790421248734
3504.082,0.055028144669,0.0822535705753
3506.01,0.0545757534645,0.0824858597318
3507.939,0.054132978436,0.0908973214173
3509.867,0.0537002786553,0.100955868685
3511.796,0.0532772052639,0.105553996246
3513.724,0.0528641969071,0.10901561717
3515.653,0.0524608251529,0.111211223495
3517.581,0.0520675082198,0.121788121891
3519.51,0.0516838381028,0.131744169166
3521.438,0.0513102125935,0.140131494263
3523.367,0.0509462441137,0.146997594567
3525.295,0.0505923100282,0.151583512996
3527.224,0.0502480431855,0.148394509411
3529.152,0.0499138005238,0.141738362753
3531.081,0.0495892353184,0.132282156308
3533.009,0.0492746840805,0.124282735365
3534.938,0.0489698205122,0.121419883828
3536.866,0.0486749606981,0.117411849954
3538.795,0.048389798767,0.113189777664
3540.723,0.0481146303767,0.113159151688
3542.652,0.0478491700827,0.113872329882
3544.58,0.0475936931162,0.110117741846
3546.509,0.0473479344595,0.100355707115
3548.437,0.0471121489168,0.0902669312538
3550.366,0.0468860918972,0.0903695521931
3552.294,0.0466699977783,0.0967617838671
3554.223,0.0464636423959,0.102988443995
3556.151,0.0462672397007,0.116533522164
3558.08,0.0460805859556,0.137464077496
3560.008,0.0459038746842,0.1602043241
3561.937,0.0457369225762,0.181554403348
3563.865,0.0455799027286,0.196653759115
3565.794,0.0454326522578,0.209740130296
3567.722,0.045295323834,0.224953295723
3569.651,0.0451677750004,0.238912535337
3571.579,0.0450501380004,0.26208846548
3573.508,0.044942290804,0.261871995909
3575.436,0.0448443452278,0.219965677838
3577.365,0.0447561996685,0.168360246826
3579.293,0.0446779455161,0.128508501678
3581.222,0.044609501594,0.0983475823509
3583.15,0.0445509388654,0.0833382063083
3585.079,0.0445021965805,0.0816393425262
3587.007,0.0444633252757,0.0894695048075
3588.936,0.044434284628,0.0844294883503
3590.864,0.044415104747,0.0830532324306
3592.793,0.0444057657365,0.0976740553302
3594.721,0.0444062772792,0.114204297964
3596.65,0.0444166399059,0.126041702164
3598.578,0.0444368428724,0.130843020132
3600.507,0.0444669071363,0.114852796505
3602.435,0.0445068015266,0.0833569714517
3604.364,0.0445565674276,0.0629227084513
3606.292,0.0446161532418,0.0548208006969
3608.221,0.04468562078,0.0493072498428
3610.149,0.0447648980179,0.0428617882196
3612.078,0.0448540671933,0.0456204907154
3614.006,0.044953035855,0.0420700996731
3615.935,0.0450619066676,0.0385342350812
3617.863,0.0451805667531,0.0423687797207
3619.792,0.0453091392029,0.040348755534
3621.72,0.0454474907122,0.0337058258462
3623.649,0.0455957647991,0.0336869289871
3625.577,0.0457538077322,0.0333900379378
3627.506,0.0459217834563,0.0407775944705
3629.434,0.0460995178132,0.0419556999124
3631.363,0.0462871951745,0.0333913887354
3633.291,0.0464846209552,0.0346609022153
3635.22,0.0466919999537,0.030231394189
3637.148,0.0469091171582,0.0257785881609
3639.077,0.0471361977939,0.0250976387896
3641.005,0.0473730064221,0.0270452853232
3642.934,0.047619788695,0.020962269039
3644.862,0.047876288747,0.0243376275178
3646.791,0.0481427726571,0.0386855281747
3648.719,0.0484189641329,0.0408474089712
3650.648,0.0487051496802,0.0261041744269
3652.576,0.0490010325798,0.0108260101266
3654.505,0.0493069197642,0.0136020408844
3656.433,0.0496224940876,0.014587647801
3658.362,0.0499480829092,0.0124763596713
3660.29,0.0502833486564,0.0107918592837
3662.219,0.0506286391152,0.00831914868096
3664.147,0.0509835962862,0.00974538253534
3666.076,0.0513485883822,0.0133095859381
3668.004,0.051723236977,0.0183024846977
3669.933,0.0521079307102,0.0138914402271
3671.861,0.0525022707287,0.00574764190146
3673.79,0.0529066660991,0.0205069775719
3675.718,0.0533206975414,0.0194720263
3677.647,0.053744794549,0.00607592258249
3679.575,0.0541785174151,0.00550541352777
3681.504,0.0546223160599,8.81054121509e-05
3683.432,0.0550757303498,4.78455221591e-05
3685.361,0.0555392306317,0.00175272435536
3687.289,0.0560123363454,0.00982414230138
3689.218,0.0564955382645,0.0123914401376
3691.146,0.056988335402,0.00958047706737
3693.075,0.0574912389583,0.00106705418488
3695.003,0.0580037275196,0.000831038678721
3696.932,0.0585263327131,0.0026339384828
3698.86,0.0590585126982,0.00210175849771
