wavenumber (/cm),baseline value (/cm),baseline-subtracted absorbance (/cm),
3.149237999999999829e+03,1.860934751844673940e-01,-2.235191549574189196e-03
3.151166999999999916e+03,1.841883745913683867e-01,-3.024925688103197174e-03
3.153094999999999800e+03,1.822934907593918297e-01,-8.688002452861276481e-05
3.155023000000000138e+03,1.804078336852370512e-01,2.103537991706039278e-03
3.156952000000000226e+03,1.785304325107475165e-01,2.742778905462373018e-04
3.158880999999999858e+03,1.766622676678881732e-01,-1.510645308644420481e-03
3.160809000000000196e+03,1.748043004385362309e-01,2.608971759385791955e-04
3.162737999999999829e+03,1.729546034707993840e-01,4.498239020904737373e-04
3.164666000000000167e+03,1.711150945427633019e-01,6.432194166019478132e-04
3.166594000000000051e+03,1.692848123725525511e-01,7.010362072512599241e-04
3.168523000000000138e+03,1.674628148234216241e-01,4.715832358119786960e-04
3.170452000000000226e+03,1.656500536059244411e-01,2.013445838126681764e-03
3.172380000000000109e+03,1.638474612805147501e-01,2.377647382176162338e-03
3.174309000000000196e+03,1.620531679381418400e-01,1.673204244209358649e-03
3.176237000000000080e+03,1.602690339140462328e-01,1.791008540214411582e-03
3.178166000000000167e+03,1.584932084467904900e-01,3.286332642868705634e-03
3.180094000000000051e+03,1.567275327240071903e-01,4.982767488263872835e-03
3.182021999999999935e+03,1.549710837590509982e-01,6.009912905257097648e-03
3.183951000000000022e+03,1.532229577104065044e-01,6.388889049928847541e-03
3.185880000000000109e+03,1.514840679933939782e-01,5.002841942924662888e-03
3.187807999999999993e+03,1.497553088732388460e-01,3.264503115035566339e-03
3.189737000000000080e+03,1.480348870313470400e-01,2.336082340936407320e-03
3.191664999999999964e+03,1.463245862125042152e-01,5.689969533983152417e-03
3.193594000000000051e+03,1.446226322457366820e-01,7.037632587983955190e-03
3.195521999999999935e+03,1.429307897282061646e-01,5.673273751021445932e-03
3.197449999999999818e+03,1.412481739685027549e-01,6.169697253573191986e-03
3.199378999999999905e+03,1.395739194203411415e-01,5.774306598055556350e-03
3.201307999999999993e+03,1.379089012038150486e-01,9.082405780921565253e-03
3.203235999999999876e+03,1.362539752889126987e-01,1.072924516999762545e-02
3.205164999999999964e+03,1.346074249475055495e-01,1.286604113962686036e-02
3.207092999999999847e+03,1.329709573339172834e-01,1.150847256601195134e-02
3.209021000000000186e+03,1.313437164781525723e-01,8.996423014417942454e-03
3.210949999999999818e+03,1.297248655553548957e-01,9.146558684006267370e-03
3.212878000000000156e+03,1.281160830009042684e-01,1.297155472273869847e-02
3.214806999999999789e+03,1.265156999532290882e-01,1.494897203706679889e-02
3.216735999999999876e+03,1.249245532371858758e-01,1.355416909173356999e-02
3.218664000000000215e+03,1.233434605275380846e-01,1.325009046811542746e-02
3.220592999999999847e+03,1.217707816866173687e-01,1.514521952636149749e-02
3.222521000000000186e+03,1.202081472782783322e-01,1.498744556514641779e-02
3.224449000000000069e+03,1.186547396277681798e-01,1.444998088168292227e-02
3.226378000000000156e+03,1.171097602054569364e-01,1.147105451202001802e-02
3.228306000000000040e+03,1.155748108562608678e-01,1.075188478712330031e-02
3.230235000000000127e+03,1.140482993090685682e-01,1.273477963563962589e-02
3.232164000000000215e+03,1.125310240935082362e-01,1.376787411734792244e-02
3.234092000000000098e+03,1.110237645891132274e-01,1.349154926917051078e-02
3.236021000000000186e+03,1.095249572486771683e-01,1.432069118961232235e-02
3.237949000000000069e+03,1.080361560455944669e-01,1.708514184180076612e-02
3.239876999999999953e+03,1.065565816003370969e-01,2.053833399654947378e-02
3.241806000000000040e+03,1.050854736785087340e-01,1.689926300399413606e-02
3.243733999999999924e+03,1.036243575345654477e-01,1.456021741742086206e-02
3.245663000000000011e+03,1.021717174878595813e-01,1.560802576494535465e-02
3.247592000000000098e+03,1.007283137727839062e-01,1.915291537914187714e-02
3.249519999999999982e+03,9.929488747364167978e-02,1.898419874894008430e-02
3.251447999999999865e+03,9.787068793232478470e-02,1.968263259734270854e-02
3.253376999999999953e+03,9.645498363586035850e-02,2.062830758015077315e-02
3.255304999999999836e+03,9.504924239585577084e-02,1.839612301402993033e-02
3.257233999999999924e+03,9.365200597451384112e-02,1.827359798788363854e-02
3.259161999999999807e+03,9.226472303582333723e-02,2.006621803361996470e-02
3.261090999999999894e+03,9.088595448960035128e-02,1.875470051899141843e-02
3.263019999999999982e+03,8.951642227500933302e-02,1.922056347248890518e-02
3.264947999999999865e+03,8.815682918112344169e-02,2.230511360670628385e-02
3.266876000000000204e+03,8.680646284505755261e-02,2.358573365751981399e-02
3.268804999999999836e+03,8.546463004907955963e-02,2.548654755124379889e-02
3.270733000000000175e+03,8.413272201432953068e-02,2.447083605703426201e-02
3.272661999999999807e+03,8.280935709346870510e-02,2.091347723383352175e-02
3.274590999999999894e+03,8.149522850424517628e-02,1.997651919614895633e-02
3.276518999999999778e+03,8.019101031429620718e-02,1.943094460332206452e-02
3.278447999999999865e+03,7.889534960018984577e-02,2.147157650918041227e-02
3.280376000000000204e+03,7.760958971155496045e-02,2.329610118099534333e-02
3.282304000000000087e+03,7.633305658074540645e-02,2.433913587856917360e-02
3.284233000000000175e+03,7.506509528524851760e-02,2.469786842646692904e-02
3.286161000000000058e+03,7.380702045575127102e-02,2.254494558084019218e-02
3.288090000000000146e+03,7.255752703537865500e-02,1.992655261690079449e-02
3.290018999999999778e+03,7.131726994663623032e-02,2.204419775780119828e-02
3.291947000000000116e+03,7.008688496194181994e-02,2.198730891251488018e-02
3.293875000000000000e+03,6.886572673507096454e-02,2.443964069644621873e-02
3.295804000000000087e+03,6.765316906493801241e-02,2.825808131411777779e-02
3.297731999999999971e+03,6.645046913938124078e-02,2.843631949904978917e-02
3.299661000000000058e+03,6.525637934437078513e-02,2.844472244477302958e-02
3.301588999999999942e+03,6.407213772012809727e-02,2.723383620082575618e-02
3.303518000000000029e+03,6.289651580023658539e-02,2.320072467282519035e-02
3.305447000000000116e+03,6.173013021197881756e-02,2.324813724986296570e-02
3.307375000000000000e+03,6.057357843254074226e-02,2.695699874323986833e-02
3.309302999999999884e+03,5.942625341092266922e-02,2.821905135001934184e-02
3.311231999999999971e+03,5.828756724127437394e-02,2.681503055514711242e-02
3.313159999999999854e+03,5.715870052097216103e-02,2.536277931325403578e-02
3.315088999999999942e+03,5.603848222644280952e-02,2.419248916747207545e-02
3.317016999999999825e+03,5.492807380745290402e-02,2.571328877214895670e-02
3.318945999999999913e+03,5.382632338804960170e-02,2.589469147094147772e-02
3.320875000000000000e+03,5.273380930027649072e-02,2.599155206634651272e-02
3.322802999999999884e+03,5.165109072608764507e-02,2.418131602616124809e-02
3.324731000000000222e+03,5.057759890972590711e-02,2.481409218498753511e-02
3.326659999999999854e+03,4.951278424056049232e-02,2.826544278865195103e-02
3.328588000000000193e+03,4.845775072551106177e-02,2.976321359269373801e-02
3.330516999999999825e+03,4.741140393146991983e-02,2.952127574102592078e-02
3.332445000000000164e+03,4.637482871773457305e-02,3.107286156832622659e-02
3.334373999999999796e+03,4.534694979881059851e-02,2.737719858893816749e-02
3.336302000000000135e+03,4.432883288638933550e-02,2.533001680531188349e-02
3.338231000000000222e+03,4.331942184258785744e-02,2.859961181757597615e-02
3.340159000000000106e+03,4.231976323147890184e-02,2.968822221277434004e-02
3.342088000000000193e+03,4.132882006280169662e-02,2.642110412601850200e-02
3.344016000000000076e+03,4.034761975300504844e-02,2.826301402845676769e-02
3.345945000000000164e+03,3.937514445944678698e-02,3.097105992749349390e-02
3.347873000000000047e+03,3.841240245096422257e-02,3.304569923709821389e-02
3.349802000000000135e+03,3.745839503252490488e-02,3.144082663936420552e-02
3.351730000000000018e+03,3.651411132535820059e-02,3.076527814194185417e-02
3.353659000000000106e+03,3.557857178204137938e-02,3.219510657639368389e-02
3.355586999999999989e+03,3.465274637618698250e-02,3.334937633684242897e-02
3.357516000000000076e+03,3.373567470799088142e-02,3.192944204122594165e-02
3.359443999999999960e+03,3.282830760344701559e-02,3.135545869595657287e-02
3.361373000000000047e+03,3.192970381037518735e-02,3.285195999231338426e-02
3.363302000000000135e+03,3.104033634893355043e-02,3.377822222783777306e-02
3.365230000000000018e+03,3.016065908919252081e-02,3.563232584965292382e-02
3.367157999999999902e+03,2.929020858727682253e-02,3.374021696614470933e-02
3.369086999999999989e+03,2.842854054444465817e-02,3.429611325116832532e-02
3.371014999999999873e+03,2.757654834384304365e-02,3.807643861663390084e-02
3.372943999999999960e+03,2.673334817613337577e-02,3.529586439841425616e-02
3.374871999999999844e+03,2.589981427684584503e-02,3.243537221865611109e-02
3.376800999999999931e+03,2.507508198425512091e-02,3.233975679063605391e-02
3.378728999999999814e+03,2.426000638627989758e-02,3.548223560300556301e-02
3.380657999999999902e+03,2.345374196881344631e-02,3.628799461260778791e-02
3.382585999999999785e+03,2.265712467215053039e-02,3.915981659945555471e-02
3.384514999999999873e+03,2.186932812980302288e-02,4.024833082097023507e-02
3.386443000000000211e+03,2.109116913445419073e-02,3.762458948275004822e-02
3.388371999999999844e+03,2.032184046722740334e-02,3.540190359423012190e-02
3.390300000000000182e+03,1.956213977319265496e-02,3.768844144585115075e-02
3.392228999999999814e+03,1.881127898108836405e-02,3.641110047913609371e-02
3.394157000000000153e+03,1.807003658836769944e-02,3.804792560712400018e-02
3.396085999999999785e+03,1.733764367138235230e-02,3.804798252896124389e-02
3.398014000000000124e+03,1.661485957997399510e-02,3.923372022392768166e-02
3.399943000000000211e+03,1.590093453810936808e-02,4.076994386075827315e-02
3.401871000000000095e+03,1.519660874801509465e-02,4.143636406104156400e-02
3.403800000000000182e+03,1.450115158127474047e-02,4.262257226386845232e-02
3.405728000000000065e+03,1.381528409249277445e-02,4.127164606014033232e-02
3.407657000000000153e+03,1.313829480087136403e-02,4.155037395481464557e-02
3.409585000000000036e+03,1.247088561340348178e-02,4.359855742713025784e-02
3.411514000000000124e+03,1.181236419690279149e-02,4.350553734964512920e-02
3.413442000000000007e+03,1.116341331074721666e-02,4.348532822367112693e-02
3.415371000000000095e+03,1.052335976937079920e-02,4.517208145169449018e-02
3.417298999999999978e+03,9.892867184529308133e-03,4.519406296810379864e-02
3.419228000000000065e+03,9.271281518271834443e-03,4.178198847060898835e-02
3.421155999999999949e+03,8.659247234742650789e-03,4.064076287341467086e-02
3.423085000000000036e+03,8.056129443607673579e-03,3.773079060086836911e-02
3.425012999999999920e+03,7.462553461392573695e-03,3.863418160380494015e-02
3.426942000000000007e+03,6.877903545378316608e-03,3.990568080719403277e-02
3.428869999999999891e+03,6.302785864475524136e-03,3.973987055925842782e-02
3.430798999999999978e+03,5.736603823580210815e-03,4.296803582061259341e-02
3.432726999999999862e+03,5.179944443993278469e-03,4.708074493233338487e-02
3.434655999999999949e+03,4.632230278222237985e-03,4.810404789826616678e-02
3.436583999999999833e+03,4.094029199945836694e-03,4.562496402758875469e-02
3.438512999999999920e+03,3.564782909293739976e-03,4.174351588783542510e-02
3.440440999999999804e+03,3.045040132333198812e-03,4.253516809570689894e-02
3.442369999999999891e+03,2.534261716803598574e-03,4.056995338478341928e-02
3.444297999999999774e+03,2.032977241155364823e-03,3.948779502206090086e-02
3.446226999999999862e+03,1.540666700744708351e-03,4.051280545128199684e-02
3.448155000000000200e+03,1.057840526410558368e-03,4.371978001336485065e-02
3.450083999999999833e+03,5.839978611206220194e-04,4.496942375011969695e-02
3.452012000000000171e+03,1.196299881005558063e-04,4.242813105506137994e-02
3.453940999999999804e+03,-3.357448020651077059e-04,4.085328245495079003e-02
3.455869000000000142e+03,-7.816543737764192201e-04,4.543696621042858652e-02
3.457797999999999774e+03,-1.218561288821362609e-03,4.968768086832198172e-02
3.459726000000000113e+03,-1.646012559215037641e-03,4.847255658023996716e-02
3.461655000000000200e+03,-2.064451599141037264e-03,4.494072775399771125e-02
3.463583000000000084e+03,-2.473444568222404882e-03,4.600675094646944352e-02
3.465512000000000171e+03,-2.873415733024131669e-03,4.744482986422826620e-02
3.467440000000000055e+03,-3.263950400791415518e-03,4.841809979935618458e-02
3.469369000000000142e+03,-3.645453690475974895e-03,4.988825162841181715e-02
3.471297000000000025e+03,-4.017530056929174975e-03,5.261704486537976955e-02
3.473226000000000113e+03,-4.380565471493014229e-03,5.244889661472540432e-02
3.475153999999999996e+03,-4.734183536633906897e-03,5.077481832891139746e-02
3.477083000000000084e+03,-5.078751076071696957e-03,5.372880667093649087e-02
3.479010999999999967e+03,-5.413910839900282213e-03,5.590617809957887374e-02
3.480940000000000055e+03,-5.740010504220904863e-03,5.426219790945707722e-02
3.482867999999999938e+03,-6.056711966735406349e-03,5.423168416930290725e-02
3.484797000000000025e+03,-6.364343755931756164e-03,5.645683339507079346e-02
3.486724999999999909e+03,-6.662586917132173880e-03,5.449741962712906229e-02
3.488653999999999996e+03,-6.951750831211356285e-03,5.126843939888536816e-02
3.490581999999999880e+03,-7.231535691097690233e-03,5.563090898534617246e-02
3.492510999999999967e+03,-7.502231730056152514e-03,6.033201036141178086e-02
3.494438999999999851e+03,-7.763558288630179050e-03,5.965681614772244679e-02
3.496367999999999938e+03,-8.015786452462592138e-03,5.740222130538885636e-02
3.498295999999999822e+03,-8.258654709724311260e-03,5.893994451059358930e-02
3.500224999999999909e+03,-8.492414998437780582e-03,5.884771672693256406e-02
3.502152999999999793e+03,-8.716824954387192292e-03,5.473320016918536979e-02
3.504081999999999880e+03,-8.932117367976388778e-03,5.348887467111995697e-02
3.506010000000000218e+03,-9.138069022613493075e-03,6.068562790262954643e-02
3.507938999999999851e+03,-9.334893561083745794e-03,6.578591953904799894e-02
3.509867000000000189e+03,-9.522386914403213609e-03,6.790356552554244196e-02
3.511795999999999822e+03,-9.700743577756298919e-03,6.856862996206825045e-02
3.513724000000000160e+03,-9.869778629763459321e-03,6.638347518288179039e-02
3.515652999999999793e+03,-1.002966741799049544e-02,6.358217929507525845e-02
3.517581000000000131e+03,-1.018024416868712478e-02,6.590297741441641932e-02
3.519510000000000218e+03,-1.032166508179344078e-02,6.945489059478227034e-02
3.521438000000000102e+03,-1.045378353117421000e-02,7.007978171170581305e-02
3.523367000000000189e+03,-1.057673656916335858e-02,7.204292478305185377e-02
3.525295000000000073e+03,-1.069039671723004403e-02,7.421410034605835371e-02
3.527224000000000160e+03,-1.079488188009314342e-02,6.958544086119089478e-02
3.529152000000000044e+03,-1.089008372684752146e-02,6.868498921557675274e-02
3.531081000000000131e+03,-1.097610101459345344e-02,6.997387721999115406e-02
3.533009000000000015e+03,-1.105284456003552407e-02,7.123984546976958043e-02
3.534938000000000102e+03,-1.112039397265895957e-02,6.835631836364219893e-02
3.536865999999999985e+03,-1.117867921678694643e-02,6.703079687573754164e-02
3.538795000000000073e+03,-1.122776075428788545e-02,6.726890095442938922e-02
3.540722999999999956e+03,-1.126758769710178854e-02,6.823109724931031295e-02
3.542652000000000044e+03,-1.129820135948378379e-02,6.719479491047963826e-02
3.544579999999999927e+03,-1.131957000098537947e-02,5.923071929846823735e-02
3.546509000000000015e+03,-1.133171578824310188e-02,5.468812941403911054e-02
3.548436999999999898e+03,-1.133462612843061379e-02,5.774117621434982084e-02
3.550365999999999985e+03,-1.132830404057116880e-02,5.797744990128084197e-02
3.552293999999999869e+03,-1.131275607944459693e-02,5.850622620983991773e-02
3.554222999999999956e+03,-1.128796611646443182e-02,6.704203464977065430e-02
3.556150999999999840e+03,-1.125395985402377619e-02,7.542509095682370379e-02
3.558079999999999927e+03,-1.121070201591933824e-02,7.943570959703727397e-02
3.560007999999999811e+03,-1.115823745216637519e-02,8.566950804753670212e-02
3.561936999999999898e+03,-1.109651173894299347e-02,9.680105030156327395e-02
3.563864999999999782e+03,-1.102558887387772302e-02,1.028935763397627046e-01
3.565793999999999869e+03,-1.094539528553006846e-02,9.490728753257338113e-02
3.567722000000000207e+03,-1.085601411915249059e-02,8.547594740531438973e-02
3.569650999999999840e+03,-1.075735265568589227e-02,9.510941977385023449e-02
3.571579000000000178e+03,-1.064951318799067792e-02,1.028167021094501532e-01
3.573507999999999811e+03,-1.053238384940513583e-02,9.953925739635760550e-02
3.575436000000000149e+03,-1.040608608039939043e-02,8.654982407696265589e-02
3.577364999999999782e+03,-1.027048886668957550e-02,7.416364564420896421e-02
3.579293000000000120e+03,-1.012573279637152268e-02,7.090305009142827686e-02
3.581222000000000207e+03,-9.971667707539211278e-03,6.781660857481908167e-02
3.583150000000000091e+03,-9.808453335907074688e-03,6.239411996887977985e-02
3.585079000000000178e+03,-9.635920371957595876e-03,5.717104621851576418e-02
3.587007000000000062e+03,-9.454247699011375516e-03,5.367440336463369377e-02
3.588936000000000149e+03,-9.263246859935847510e-03,6.203641981050700416e-02
3.590864000000000033e+03,-9.063115885677319739e-03,7.800731885747524963e-02
3.592793000000000120e+03,-8.853647171484624323e-03,9.491550909405610525e-02
3.594721000000000004e+03,-8.635057895912012782e-03,1.142440743722081820e-01
3.596650000000000091e+03,-8.407121306598597243e-03,1.307633327692490077e-01
3.598577999999999975e+03,-8.170073729711901933e-03,1.324812028108803830e-01
3.600507000000000062e+03,-7.923669265274213558e-03,1.108666592581986077e-01
3.602434999999999945e+03,-7.668163387075210835e-03,8.249581930540106356e-02
3.604364000000000033e+03,-7.403291047520355050e-03,6.297844519691908616e-02
3.606291999999999916e+03,-7.129326868007268558e-03,4.837161939807899103e-02
3.608221000000000004e+03,-6.845986653329916294e-03,3.858458970599332183e-02
3.610148999999999887e+03,-6.553564172500969676e-03,3.566707877878827482e-02
3.612077999999999975e+03,-6.251756082702897288e-03,3.317786545296463885e-02
3.614005999999999858e+03,-5.940875300563419614e-03,2.842141709779388847e-02
3.615934999999999945e+03,-5.620599335644627104e-03,2.737588084782482944e-02
3.617862999999999829e+03,-5.291260252191065661e-03,2.271772340795785716e-02
3.619791999999999916e+03,-4.952516412148000313e-03,1.746692053627607599e-02
3.621719999999999800e+03,-4.604719027382131458e-03,2.478060096410517055e-02
3.623648999999999887e+03,-4.247507312220122344e-03,2.999500554329270763e-02
3.625577000000000226e+03,-3.881251626138393362e-03,3.043386458479591106e-02
3.627505999999999858e+03,-3.505572035859216840e-03,2.738255576172599071e-02
3.629434000000000196e+03,-3.120858048463404089e-03,1.245270885206162248e-02
3.631362999999999829e+03,-2.726710583058178372e-03,1.831146748187539863e-02
3.633291000000000167e+03,-2.323538294350058209e-03,2.047071306438952298e-02
3.635219999999999800e+03,-1.910922953827665083e-03,1.941218647348796900e-02
3.637148000000000138e+03,-1.489292363807237507e-03,2.686329418327559893e-02
3.639077000000000226e+03,-1.058209148160571544e-03,2.678498565680298427e-02
3.641005000000000109e+03,-6.181202568278365561e-04,2.561609862537128635e-02
3.642934000000000196e+03,-1.685691660586741136e-04,2.431847313856438930e-02
3.644862000000000080e+03,2.899780265881446439e-04,2.143396819801490771e-02
3.646791000000000167e+03,7.579969924762508526e-04,1.050147940497647703e-02
3.648719000000000051e+03,1.235002486437153379e-03,2.659670514674861153e-03
3.650648000000000138e+03,1.721489327445979711e-03,4.775402894547919885e-04
3.652576000000000022e+03,2.216953122722742364e-03,1.148313785069277060e-02
3.654505000000000109e+03,2.721907838852288819e-03,1.961661434855277442e-02
3.656432999999999993e+03,3.235829935439582528e-03,1.531314408659634196e-02
