baseline wavenumber (cm-1),baseline absorbance (cm-1),baseline-subtracted absorbance (cm-1)
3199.3790000000004,0.19625882435169828,1.7763568394002505e-14
3201.308,0.19428131302848684,3.8250821377205924e-05
3203.236,0.19231467256560109,0.0014268525619589578
3205.165,0.19035686287957176,0.003848770726355477
3207.093,0.18840991384047356,0.0040116280620916545
3209.0209999999997,0.18647280796058752,0.004444225659318901
3210.95,0.18454454817632282,0.006580425612731755
3212.8779999999997,0.18262713372022787,0.00720057299676391
3214.8070000000002,0.18071857557314885,0.006996179441878914
3216.736,0.178819870798673,0.007826875549268753
3218.664,0.1769319960309481,0.009072057928652288
3220.593,0.17505299289365794,0.009301868363069676
3222.5209999999997,0.17318480954972415,0.00816138462096161
3224.449,0.17132646936499896,0.01031713166945969
3226.3779999999997,0.1694770161294734,0.011089140297450673
3228.3059999999996,0.16763836736853932,0.011818541836744911
3230.235,0.16580861577019945,0.012277985194363517
3232.164,0.16398871754446276,0.01157184721404736
3234.092,0.16217960847190227,0.01095172583997317
3236.0209999999997,0.16037941188335125,0.010486597762277006
3237.949,0.1585899942345783,0.011402666700628394
3239.877,0.15681041974501753,0.012173993479278389
3241.8059999999996,0.15503977305823113,0.013326061847759085
3243.7340000000004,0.1532798899924579,0.01371214188005232
3245.663,0.15152894494285718,0.012060207220419894
3247.592,0.14978785326585964,0.012572879242702895
3249.52,0.14805750988846,0.01353961040230689
3251.448,0.14633700967026897,0.013010862000940815
3253.377,0.14462546789503605,0.013500624227701152
3255.305,0.14292465910063612,0.014247005119675915
3257.2340000000004,0.14123281896259243,0.012977707353197143
3259.1620000000003,0.13955170159198005,0.013757168192041647
3261.091,0.13787956309112204,0.014760752838143487
3263.02,0.13621727796286365,0.01630246761622378
3264.948,0.13456570028062487,0.0169346142507234
3266.8759999999997,0.13292396575759824,0.016066738093663435
3268.805,0.13129123053110447,0.016463714600649437
3270.7329999999997,0.1296691874318654,0.017995592046711417
3272.6620000000003,0.1280561538425573,0.018825093099499313
3274.591,0.1264529736258524,0.0192057948091795
3276.5190000000002,0.12486047021498692,0.018616848580008893
3278.448,0.12327699163546768,0.019126377344751866
3280.3759999999997,0.1217041796483933,0.02083758312507422
3282.304,0.12014121082052753,0.02314983552042449
3284.2329999999997,0.11858728214277292,0.024132016102841325
3286.1609999999996,0.1170440047386947,0.02417462949629523
3288.09,0.11550977769812931,0.023915678372325777
3290.0190000000002,0.11398540403016,0.024148376636646818
3291.947,0.11247166631445893,0.02430997903397225
3293.875,0.11096777175796291,0.026509686828742884
3295.804,0.10947294799176532,0.026786924797778333
3297.732,0.1079887448590604,0.02600545378496011
3299.6609999999996,0.1065136227300485,0.0278041937234359
3301.5890000000004,0.10504911102113113,0.029915242092729333
3303.518,0.10359369052930134,0.029371641126531456
3305.447,0.10214812341007828,0.029604515158454747
3307.375,0.10071315138953452,0.029126088143561324
3309.303,0.0992880225282029,0.028691288298664963
3311.232,0.09787200531074447,0.029339150067742015
3313.16,0.0964665678732004,0.03050449524275667
3315.0890000000004,0.0950702522929241,0.030986573037333986
3317.0170000000003,0.09368450627917113,0.03164924642929323
3318.946,0.09230789233608405,0.030837770626102268
3320.875,0.09094113176559304,0.030333768632813563
3322.803,0.08958492544021723,0.030027152563557147
3324.7309999999998,0.08823856227404647,0.03076612074825036
3326.66,0.08690135160532364,0.03162314689191592
3328.5879999999997,0.08557467986294398,0.03214811317542887
3330.5170000000003,0.08425717083140682,0.031486521067663586
3332.445,0.08295019051281827,0.03127536341183412
3334.3740000000003,0.08165238311846679,0.03155304079989496
3336.302,0.08036509422366933,0.03215639875179743
3338.2309999999998,0.07908698846649997,0.03259365737120201
3340.159,0.07781939099549362,0.03244900908838155
3342.0879999999997,0.07656098687550994,0.03359103660949758
3344.0159999999996,0.07531308082829469,0.03461422748232268
3345.945,0.07407437834549668,0.03509910316704978
3347.873,0.07284616372206898,0.036152228673262066
3349.802,0.0716271628764531,0.035077597031284435
3351.73,0.07041863967682005,0.034182604469402245
3353.659,0.06921934046838985,0.034602215413346515
3355.587,0.06803050869254434,0.03510292249498659
3357.5159999999996,0.06685091112130337,0.03671168061700669
3359.4440000000004,0.06568177076924542,0.039134752610918255
3361.373,0.06452187483519012,0.03932030032382339
3363.302,0.06337183227373089,0.038254644276209726
3365.23,0.06223223161005009,0.03636775441077922
3367.158,0.0611024741055779,0.03646200482082196
3369.087,0.059981981445886845,0.03760276727851397
3371.015,0.05887191536520575,0.038280876974208455
3372.9440000000004,0.057771124342700375,0.037650347664009765
3374.8720000000003,0.05668074968580328,0.0386327332246601
3376.801,0.05559966030048358,0.038891847353112574
3378.7290000000003,0.05452897706738469,0.03819800972229892
3380.658,0.05346758931924711,0.038093185126828244
3382.586,0.05241659750993577,0.03887857268647177
3384.515,0.05137491139898387,0.04007542759591387
3386.4429999999998,0.05034361101346363,0.04015754226814683
3388.3720000000003,0.049321626539697405,0.03945135172269176
3390.3,0.04831001757796827,0.04065482480687854
3392.2290000000003,0.04730773474138772,0.041087805903052166
3394.157,0.04631581720344968,0.04039488385197787
3396.086,0.045333236004047706,0.039569958236534086
3398.014,0.04436100988990077,0.03977962057071305
3399.9429999999998,0.04339813032768802,0.039310334060373986
3401.8709999999996,0.04244559563733219,0.039850133725916725
3403.8,0.041502417712301565,0.04206192142238785
3405.728,0.04056957444573683,0.04226295508526201
3407.657,0.039646098157891885,0.0399257897291565
3409.585,0.0387329463151147,0.040201491372730436
3411.514,0.03782917166445543,0.039258617529645434
3413.442,0.03693571124546935,0.03672578312791441
3415.3709999999996,0.036051638231999306,0.03556749925314806
3417.2990000000004,0.035177869236800774,0.034567709850359396
3419.228,0.034313497860512854,0.03293470232121676
3421.156,0.033459420289108976,0.03291508170292312
3423.085,0.03261475055000673,0.03098278911589114
3425.013,0.031780364402390404,0.030009668448661708
3426.942,0.030955396300470284,0.03030971867821175
3428.87,0.03014070157664861,0.02913028465386791
3430.7990000000004,0.029335435111914165,0.0270422121936007
3432.7270000000003,0.02854043181188004,0.02658433228960866
3434.656,0.02775486698432772,0.02678521828861591
3436.5840000000003,0.02697955510808825,0.025676137909316
3438.513,0.02621369191771805,0.021995925751954193
3440.441,0.025458071465269683,0.02218713717385823
3442.37,0.02471190991208516,0.02399990947702535
3444.298,0.02397598088342434,0.023729338191154747
3446.2270000000003,0.02324952096742905,0.022636059517648466
3448.155,0.02253328336255933,0.024964445022147563
3450.0840000000003,0.021826525083746162,0.024668547258464235
3452.012,0.021129978902667546,0.025373131462888
3453.941,0.020442922261043606,0.02508304404915429
3455.869,0.019766067503752538,0.02394959615739234
3457.798,0.01909871249931072,0.0247752652738078
3459.7259999999997,0.018441549165810756,0.025489743208551685
3461.655,0.017793895798551063,0.02616640335570919
3463.583,0.0171564238888422,0.02633207824298145
3465.512,0.01652847215876818,0.02603880260183855
3467.44,0.01591069167285397,0.027385946336512257
3469.369,0.015302441579965631,0.02806898499443866
3471.297,0.01470435251783897,0.028663579263806582
3473.2259999999997,0.014115804062136306,0.0301261753884825
3475.1540000000005,0.013537406423797194,0.0321667943170989
3477.083,0.012968559605280205,0.03263673850054216
3479.011,0.012409853390735748,0.03335725361981856
3480.94,0.011860708209400883,0.03384314305221947
3482.868,0.011321693418643974,0.03565181605224477
3484.797,0.010792249874494786,0.03584610897082596
3486.725,0.010272926507532532,0.035872317079522986
3488.6540000000005,0.009763184600565467,0.03717328006707987
3490.5820000000003,0.009263552657394314,0.039880572595978325
3492.511,0.008773512387612925,0.03904573693090274
3494.4390000000003,0.008293571868229321,0.03921533985330572
3496.368,0.007823233235633609,0.040349689110071196
3498.296,0.007362984140041107,0.04055516781354829
3500.225,0.0069123471446275175,0.03965052417710324
3502.153,0.006471789472826117,0.039842951563030526
3504.0820000000003,0.006040854114601757,0.04262413505154061
3506.01,0.005619987866591458,0.045641632319331604
3507.9390000000003,0.0052087541455492214,0.04802462811488284
3509.867,0.004807579321326472,0.05311266950791804
3511.796,0.004416047237473464,0.05637132957108193
3513.724,0.004034563837041816,0.05564950689756376
3515.653,0.0036627333903709314,0.054886927614731684
3517.5809999999997,0.003300941413730385,0.0561318537215183
3519.51,0.002948812604241624,0.05763307039009713
3521.438,0.0026067120513921793,0.060260765407194716
3523.367,0.0022742848790926473,0.0642903338390175
3525.295,0.0019518757500343042,0.06610781531028609
3527.224,0.001639150214913343,0.06443200376565583
3529.152,0.0013364325096461016,0.06571081708845306
3531.0809999999997,0.0010434086117108166,0.06530278555897495
3533.009,0.0007603823302346768,0.06202077374720982
3534.938,0.0004870600694886207,0.05977714626307584
3536.866,0.0002237252118000299,0.060567495868789845
3538.795,-2.9895411763902757e-05,0.05934246967611001
3540.723,-0.00027353884565783915,0.06006629763506188
3542.652,-0.0005074578320396483,0.06054904586586929
3544.58,-0.0007314098421460358,0.0599178220879002
3546.509,-0.0009456271913386161,0.05748927715289609
3548.437,-0.0011498877776539018,0.056239703951554976
3550.366,-0.0013444034896643586,0.05506391142284395
3552.2940000000003,-0.0015289726521885427,0.05917872452190287
3554.223,-0.0017037867270133233,0.0643423552598994
3556.151,-0.0018686644657464058,0.06931501939689921
3558.08,-0.002023776903389063,0.07707200504346057
3560.008,-0.0021689632183310437,0.08808145360765107
3561.937,-0.002304374018784472,0.09678295093917333
3563.865,-0.0024298689099389037,0.10130314772450544
3565.7940000000003,-0.0025455780732102085,0.10137482249901586
3567.722,-0.0026513815405735386,0.10107488052708358
3569.651,-0.0027473890666556144,0.10257719265930265
3571.579,-0.0028335011102313956,0.10433905783071795
3573.508,-0.002909806999131348,0.09983403989212092
3575.4359999999997,-0.002976227618908922,0.08854867467279859
3577.365,-0.003032831870626751,0.07615822503481207
3579.2929999999997,-0.003079561066616776,0.06721285246243713
3581.222,-0.003116463681148929,0.06079871712351981
3583.15,-0.0031435014533478522,0.05791459252764719
3585.079,-0.0031607024306978815,0.05733418394324419
3587.007,-0.0031680487791057033,0.06322431494252223
3588.9359999999997,-0.0031655481192700563,0.07364153889301739
3590.864,-0.0031532030438867764,0.08093925183119377
3592.7929999999997,-0.0031310007468654533,0.09106802458135221
3594.7209999999995,-0.0030989642476946244,0.11062045722316127
3596.65,-0.003057060313487625,0.13136348374257856
3598.578,-0.003005332390522142,0.13682863566863812
3600.507,-0.002943726819133019,0.1168743202349436
3602.435,-0.002872307472379987,0.08524142748356356
3604.364,-0.002791000263805188,0.059877391540802405
3606.292,-0.002699889493261054,0.044647537497734646
3608.2209999999995,-0.002598880647497026,0.037332577439277426
3610.1490000000003,-0.0024880784531653433,0.03584622481508637
3612.078,-0.002367367970219192,0.03145557653945108
3614.006,-0.0022368743520928547,0.032927095921953864
3615.935,-0.002096462231961027,0.03191892675981456
3617.863,-0.001946277190047141,0.03015065267058148
3619.792,-0.00178616343273319,0.03085619907961945
3621.72,-0.0016162869670246494,0.03086280964822996
3623.6490000000003,-0.0014364715725285748,0.02890694057371701
3625.577,-0.0012469036830289326,0.026732679876500853
3627.506,-0.0010473866513436292,0.022745156973563718
3629.434,-0.0008381273380599907,0.028866714742826982
3631.363,-0.0006189086691890111,0.02917346238415397
3633.2909999999997,-0.0003899579321107183,0.02490557965574247
3635.22,-0.00015103762605761517,0.02388068045823788
3637.1479999999997,9.760453481177933e-05,0.022543759832281518
3639.077,0.0003562264780505586,0.022589883817608847
3641.005,0.0006245600627110548,0.020547942907862993
3642.934,0.0009028836431319576,0.019111794486454947
3644.862,0.0011909086515835554,0.01679993499138832
3646.7909999999997,0.0014889338691865817,0.01426629084598785
3648.719,0.0017966503014292812,0.018932013988778307
3650.6479999999997,0.0021143771562215363,0.025863535753543276
3652.5759999999996,0.002441785012251785,0.023533611646726627
3654.505,0.002779213504229716,0.016768560312783176
3656.433,0.0031263127840510663,0.018538955965512027
3658.362,0.003483442913214674,0.019157921453878624
3660.29,0.0038502336168271256,0.01683369732606832
3662.219,0.004227065383172857,0.014051399703847611
3664.147,0.00461354751057641,0.012572794839322166
3666.0759999999996,0.005010080914107817,0.010172347267901172
3668.0040000000004,0.00541625446529892,0.006526500829312276
3669.933,0.005832489506016003,0.007311426059791071
3671.861,0.00625835448100176,0.01441474260434128
3673.79,0.006694291158900967,0.007632961235032321
3675.718,0.007139847557677825,0.00841058230183167
3677.647,0.007595485872762708,0.014125350081665378
3679.575,0.008060733695327116,0.01121339784867259
3681.5040000000004,0.008536073647597675,0.009774543532803603
3683.4320000000002,0.009021012893949631,0.007821791327760286
3685.361,0.009516054483405867,0.005115244880542047
3687.289,0.01002068515355603,0.0027279693512318737
3689.218,0.010535428380190837,0.004312897614077826
3691.1459999999997,0.011059750474128549,0.006553655550894488
3693.075,0.011594195337952584,0.006227500335494129
3695.0029999999997,0.012138208855681398,0.003564244488835522
3696.9320000000002,0.01269235535669111,0.0027493864480201413
3698.86,0.013256060298211025,0.0021856815065002255
