baseline wavenumber (cm-1),baseline absorbance (cm-1),baseline-subtracted absorbance (cm-1)
3199.379,0.14025320934,1.62092561595e-14
3201.308,0.138527721025,0.00118318567641
3203.236,0.136812972921,0.0032385786807
3205.165,0.135107186244,0.0064009508226
3207.093,0.133412129564,0.00525005581966
3209.021,0.131726916043,0.00417574240228
3210.95,0.130050679267,0.00493516931238
3212.878,0.12838515717,0.00821445871967
3214.807,0.126728622032,0.0100327243747
3216.736,0.125081940266,0.00827396795194
3218.664,0.123445957857,0.00833459404809
3220.593,0.121818977729,0.0105847420733
3222.521,0.120202686744,0.011055778838
3224.449,0.118596238918,0.0107401605564
3226.378,0.116998808691,0.00678063131701
3228.306,0.115412052289,0.00520606152868
3230.235,0.113834323699,0.00729425206121
3232.164,0.112266448482,0.00962478774535
3234.092,0.110709231769,0.00925488427289
3236.021,0.109161058189,0.0101500708924
3237.949,0.107623532899,0.0127211552643
3239.877,0.106095850769,0.0155416707113
3241.806,0.10457722709,0.0128836038002
3243.734,0.103069236384,0.011656832554
3245.663,0.101570314343,0.0122783665429
3247.592,0.100081245674,0.0144350789998
3249.52,0.0986027946558,0.0153035027262
3251.448,0.0971341867967,0.0162965217852
3253.377,0.09567466803,0.0175008095804
3255.305,0.0942257515947,0.0172929990371
3257.234,0.0927859344652,0.0175132669904
3259.162,0.0913567094536,0.0184087812974
3261.091,0.0899365939614,0.0174216391327
3263.02,0.0885263318417,0.0183381177691
3264.948,0.0871266465185,0.0199303634886
3266.876,0.0857368043545,0.0212747189448
3268.805,0.0843560921366,0.0243389447582
3270.733,0.0829859413964,0.0237920834697
3272.662,0.0816249308157,0.0193777983868
3274.591,0.0802737736076,0.0185036447691
3276.519,0.0789331625557,0.0195167515249
3278.448,0.0776017069848,0.0224463067623
3280.376,0.0762807873568,0.024951397016
3282.304,0.0749697108879,0.026109334902
3284.233,0.0736678052188,0.0252592138857
3286.161,0.0723764201737,0.0220337688488
3288.09,0.0710942161417,0.0202011442141
3290.019,0.0698218654824,0.0228658935392
3291.947,0.0685600201257,0.02195448508
3293.875,0.0673080179282,0.0247671867619
3295.804,0.0660652171706,0.0269111297413
3297.732,0.064832906397,0.0259535082396
3299.661,0.0636098072765,0.0270371147896
3301.589,0.0623971879267,0.0267779864391
3303.518,0.0611937904434,0.0239366047855
3305.447,0.0600002463328,0.0233283698605
3307.375,0.0588171666713,0.025638509059
3309.303,0.057643930169,0.0283239258909
3311.232,0.0564799359601,0.0273768314512
3313.16,0.0553263908816,0.0255535242099
3315.089,0.0541820983099,0.0234672497139
3317.017,0.0530482446552,0.0246698388382
3318.946,0.0519236537207,0.0256104613101
3320.875,0.0508089161588,0.0254166979117
3322.803,0.0497046021925,0.0238468988689
3324.731,0.0486101313853,0.0255321914692
3326.66,0.0475249437252,0.0274836482085
3328.588,0.0464501643419,0.0275400307456
3330.517,0.0453846783189,0.0271868368939
3332.445,0.0443295903594,0.0299143194759
3334.374,0.0432838059736,0.0280802898517
3336.302,0.0422484094378,0.0268307374337
3338.231,0.0412223266893,0.0293882060106
3340.159,0.0402066215773,0.0276428679608
3342.088,0.0392002404659,0.0231761873113
3344.016,0.0382042267777,0.0257930440198
3345.945,0.0372175473035,0.0284111800795
3347.873,0.0362412250391,0.0308572284128
3349.802,0.0352742472021,0.0304752726604
3351.73,0.0343176163615,0.0291944628865
3353.659,0.0333703401616,0.0277486328496
3355.587,0.0324334007448,0.0289832574984
3357.516,0.0315058261822,0.0292755343758
3359.444,0.0305885781892,0.0295377737769
3361.373,0.0296807052637,0.029740097324
3363.302,0.0287826857108,0.0297890316651
3365.23,0.0278949774062,0.0324325268898
3367.158,0.0270171122607,0.0311376436273
3369.087,0.0261486426096,0.0299137247208
3371.015,0.025290468888,0.033504133356
3372.944,0.0244417008741,0.0319557518703
3374.872,0.0236032185762,0.0289955886612
3376.801,0.0227741521995,0.0289321047499
3378.729,0.0219553613254,0.0311827161031
3380.658,0.0211459965859,0.0306714500936
3382.586,0.0203468971356,0.0329422972443
3384.515,0.0195572340333,0.0328717561618
3386.443,0.0187778260068,0.0285617069964
3388.372,0.0180078645416,0.026197634296
3390.3,0.0172481479389,0.0301813476641
3392.229,0.0164978881109,0.0297545125764
3394.157,0.015757862932,0.0300664572944
3396.086,0.0150273047412,0.0292368214086
3398.014,0.0143069709861,0.0302710134474
3399.943,0.0135961144325,0.0309576104235
3401.871,0.0128954721011,0.031125552866
3403.8,0.0122043171847,0.0333405124929
3405.728,0.0115233662772,0.0317744200364
3407.657,0.0108519129979,0.0291061381494
3409.585,0.0101906535142,0.0301196669144
3411.514,0.0095389018721,0.0294068173233
3413.442,0.00889733381215,0.0278938316584
3415.371,0.00826528380727,0.0276484936111
3417.299,0.0076434071711,0.0276770214148
3419.228,0.00703105880341,0.02413946581
3421.156,0.00642887359104,0.0208646672965
3423.085,0.00583622686053,0.0158720517203
3425.013,0.00525373307194,0.0148791891963
3426.942,0.00468078797862,0.0149649211086
3428.87,0.00411798561383,0.0146786382616
3430.799,0.00356474215769,0.0151141216854
3432.727,0.00302163121669,0.0150886487793
3434.656,0.00248808939773,0.0117543042139
3436.584,0.00196466988051,0.00791908631073
3438.513,0.00145082969875,0.00593772786721
3440.441,0.000947101605323,0.00750938277757
3442.37,0.000452963060738,0.00472999458608
3444.298,-3.10736088913e-05,0.00227356830211
3446.227,-0.000505510516291,0.00140210406729
3448.155,-0.000969855762129,0.00601837491709
3450.084,-0.00142459103235,0.00801965825159
3452.012,-0.0018692448544,0.00500681687502
3453.941,-0.00230427848743,0.00230427848743
3455.869,-0.00272924088569,0.00650008896008
3457.798,-0.00314457288154,0.0107004204505
3459.726,-0.003549843856,0.00754408220635
3461.655,-0.00394547421467,0.00427853799714
3463.583,-0.00433105376534,0.00755656675432
3465.512,-0.00470698248682,0.00861833394745
3467.44,-0.00507287061371,0.00818769928044
3469.369,-0.005429097698,0.00946477949321
3471.297,-0.0057752944011,0.0124072563944
3473.226,-0.00611181984821,0.0118224233052
3475.154,-0.00643832512751,0.0109071414623
3477.083,-0.00675514893744,0.0158555229393
3479.011,-0.00706196279295,0.0173601534328
3480.94,-0.00735908496569,0.0137802918797
3482.868,-0.00764620739741,0.0145283462835
3484.797,-0.00792362793297,0.0183380623816
3486.725,-0.0081910589409,0.0176275291724
3488.654,-0.00844877783927,0.0171150064858
3490.582,-0.00869651742341,0.0228514754746
3492.511,-0.0089345346846,0.0270175226559
3494.439,-0.00916258284495,0.026859439208
3496.368,-0.00938089846895,0.0255721448047
3498.296,-0.00958925520552,0.0285855151873
3500.225,-0.00978786919233,0.0290656413545
3502.153,-0.0099765345051,0.0273383054543
3504.082,-0.0101554468547,0.0294792111325
3506.01,-0.0103244207437,0.0378135544746
3507.939,-0.0104836314562,0.0426154418271
3509.867,-0.0106329139214,0.0456844655235
3511.796,-0.0107724229966,0.0473381765597
3513.724,-0.010902014038,0.0459136384189
3515.653,-0.0110218214761,0.0435690771114
3517.581,-0.0111317210937,0.0453235739189
3519.51,-0.0112318268946,0.04940376665
3521.438,-0.0113220350884,0.0516672286596
3523.367,-0.0114024392521,0.0548563965957
3525.295,-0.0114729560221,0.0555996112329
3527.224,-0.0115336585487,0.0500609000325
3529.152,-0.0115844838949,0.0515718486983
3531.081,-0.0116254847842,0.053188711308
3533.009,-0.0116566187067,0.0548720235384
3534.938,-0.0116779179588,0.0526543659524
3536.866,-0.0116893604575,0.053201540787
3538.795,-0.0116909580725,0.0542073838281
3540.723,-0.0116827091473,0.0560666169609
3542.652,-0.0116646051251,0.0538570644398
3544.58,-0.0116366647762,0.0460766728627
3546.509,-0.0115988591168,0.0423180545075
3548.437,-0.0115512273441,0.0448899516946
3550.366,-0.0114937200475,0.0437038686374
3552.294,-0.011426396851,0.0458679211611
3554.223,-0.0113491879172,0.055099819677
3556.151,-0.0112621732969,0.0621607884794
3558.08,-0.011165262726,0.0661627356866
3560.008,-0.0110585566819,0.072869938467
3561.937,-0.0109419444737,0.0842387199716
3563.865,-0.0108155470059,0.0896288493408
3565.794,-0.0106792331605,0.0809127315938
3567.722,-0.0105331442689,0.0765318302084
3569.651,-0.0103771287864,0.0851016815004
3571.579,-0.0102113484709,0.0905454230691
3573.508,-0.0100356313512,0.0866044173615
3575.436,-0.00985015961195,0.0730953835076
3577.365,-0.00965474085507,0.0618466947619
3579.293,-0.00944957769203,0.0595132590829
3581.222,-0.00923445729797,0.0573548454512
3583.15,-0.00900960271114,0.0531266551725
3585.079,-0.00877478067989,0.0472777625863
3587.007,-0.00853023466927,0.046529830343
3588.936,-0.00827571100083,0.0599546759255
3590.864,-0.00801147356642,0.0693083501458
3592.793,-0.00773724826081,0.0816162536181
3594.721,-0.0074533194026,0.100480207101
3596.65,-0.0071593924598,0.120142309674
3598.578,-0.00685577217781,0.122623486723
3600.507,-0.00654214359782,0.102468050805
3602.435,-0.00621883189204,0.0768869810884
3604.364,-0.00588550167487,0.0567361031102
3606.292,-0.00554249854529,0.0399092224915
3608.221,-0.00518946669094,0.0295521473743
3610.149,-0.00482677213757,0.0283565406608
3612.078,-0.00445403864603,0.0242847270115
3614.006,-0.00407165266887,0.0251744526284
3615.935,-0.00367921754015,0.0232475992242
3617.863,-0.0032771401392,0.0170050285451
3619.792,-0.00286500337329,0.0147552287852
3621.72,-0.00244323454856,0.0214976164347
3623.649,-0.00201139614546,0.0240527385087
3625.577,-0.00156993589693,0.0229289776436
3627.506,-0.00111839585665,0.0138071656939
3629.434,-0.000657244184339,0.0100310438407
3631.363,-0.000186002506872,0.0196416782372
3633.291,0.000294840589234,0.016556973825
3635.22,0.000785783903883,0.0177854280642
3637.148,0.00128631842378,0.0235554889147
3639.077,0.00179696337562,0.0248415689199
3641.005,0.00231718931931,0.0230724801439
3642.934,0.00284753590833,0.0224319546405
3644.862,0.00338745327581,0.0186639972448
3646.791,0.00393750150201,0.00791532372795
3648.719,0.00449711029328,0.0058541481723
3650.648,0.00506686015666,0.0115418530749
3652.576,0.00564616037173,0.020311082123
3654.505,0.0062356118723,0.0176762449962
3656.433,0.00683460351116,0.0153169177665
3658.362,0.00744375664891,0.0194606201832
3660.29,0.00806243971155,0.0242937717511
3662.219,0.00869129448649,0.0261611264172
3664.147,0.00932966897293,0.0247873834884
3666.076,0.00997822538505,0.0195411317361
3668.004,0.0106362912953,0.0111290983742
3669.933,0.0113045493446,0.00451269517173
3671.861,0.0119823066786,0.00991752148272
3673.79,0.0126702663651,0.00114758464066
3675.718,0.0133677151229,-0.00330656077134
3677.647,0.0140753764466,0.00670648951925
3679.575,0.0147925166282,0.00972027019078
3681.504,0.015519879589,0.0114820409608
3683.432,0.0162567111944,0.0103621101944
3685.361,0.0170037757925,0.00693284606135
3687.289,0.0177602988217,-0.00229835603383
3689.218,0.0185270650569,-0.00813133069927
3691.146,0.0193032795099,-0.0026773824109
3693.075,0.0200897473823,0.0046145890172
3695.003,0.020885653259,0.00468545762745
3696.932,0.0216918227686,0.00497501236731
3698.86,0.0225074200692,0.00415941506676
