baseline wavenumber (cm-1),baseline absorbance (cm-1),baseline-subtracted absorbance (cm-1)
3199.379,0.19331876074,1.43773881689e-14
3201.308,0.191388131739,0.0015141729207
3203.236,0.189468349295,0.00256354194143
3205.165,0.187557421931,0.00229105679109
3207.093,0.185657330911,0.00260270143543
3209.021,0.183767083049,0.00392426436806
3210.95,0.181885705588,0.00417666174292
3212.878,0.18001514915,0.00398252597389
3214.807,0.178153473325,0.00504914468741
3216.736,0.176301650873,0.0070605749429
3218.664,0.174460634124,0.00558399339028
3220.593,0.172628513309,0.00430987747205
3222.521,0.170807187984,0.00345516923838
3224.449,0.168995705818,0.0036430791818
3226.378,0.167193134905,0.00411561875956
3228.306,0.165401344162,0.00477180857203
3230.235,0.163618474886,0.00486383583839
3232.164,0.161845458983,0.00530697202872
3234.092,0.160083207929,0.00708337450296
3236.021,0.158329893663,0.00854769655232
3237.949,0.156587334033,0.00699540123463
3239.877,0.154854617562,0.00789753042173
3241.806,0.153130853197,0.00980804299185
3243.734,0.15141782815,0.0106472683828
3245.663,0.149713765423,0.010070425419
3247.592,0.148019556068,0.00886162254266
3249.52,0.14633607071,0.0101625646892
3251.448,0.14466242851,0.0110799145609
3253.377,0.142997769057,0.0101143304071
3255.305,0.141343818281,0.0112647938687
3257.234,0.139698860466,0.0126345065615
3259.162,0.138064601114,0.0122775094696
3261.091,0.136439344935,0.0114906560756
3263.02,0.134823942129,0.0123056444469
3264.948,0.133219222466,0.0138663430857
3266.876,0.131624345961,0.0151526680891
3268.805,0.130038493057,0.0147864336586
3270.733,0.128463307976,0.0147531582117
3272.662,0.12689715671,0.0160008519834
3274.591,0.125340858815,0.0156583830728
3276.519,0.123795213423,0.0149284800976
3278.448,0.122258617166,0.017007581156
3280.376,0.120732663197,0.0186118733435
3282.304,0.119216552388,0.0181325328236
3284.233,0.117709506033,0.0160774645524
3286.161,0.116213086647,0.0162489572221
3288.09,0.114725741929,0.0178429935403
3290.019,0.113248250584,0.0198582388533
3291.947,0.111781370887,0.0210541693945
3293.875,0.110324334349,0.0210284403406
3295.804,0.108876392905,0.0217998933582
3297.732,0.107439047791,0.022120438715
3299.661,0.106010807984,0.0204147454375
3301.589,0.104593154294,0.0204132138454
3303.518,0.103184616124,0.0212840991288
3305.447,0.101785931328,0.0238863116725
3307.375,0.100397817326,0.0237276249063
3309.303,0.0990195464828,0.0236270217978
3311.232,0.0976504115878,0.0232370340809
3313.16,0.0962918321688,0.023272101926
3315.089,0.094942398911,0.0231706102874
3317.017,0.0936035109157,0.0239712894481
3318.946,0.0922737792951,0.0226994340881
3320.875,0.0909539010471,0.0223240732782
3322.803,0.0896445527403,0.0248605013384
3324.731,0.0883450475926,0.027793231999
3326.66,0.0870547192464,0.0267302297074
3328.588,0.0857749055225,0.0259638996933
3330.517,0.0845042788134,0.027057380946
3332.445,0.0832441565134,0.0273131567384
3334.374,0.0819932314415,0.0287563389618
3336.302,0.0807528005652,0.0289728135053
3338.231,0.0795215771305,0.0275579235265
3340.159,0.078300837678,0.0287753272871
3342.088,0.0770893158805,0.028987455574
3344.016,0.0758882678518,0.0287150375156
3345.945,0.0746964476915,0.0286158943685
3347.873,0.0735150910866,0.0288169113394
3349.802,0.0723429725635,0.0289952463792
3351.73,0.0711813073823,0.0297947362849
3353.659,0.0700288904964,0.0275922052279
3355.587,0.0688869167391,0.0278921694835
3357.516,0.0677542014903,0.0295593535486
3359.444,0.0666319191568,0.030832399048
3361.373,0.0655189055452,0.0314169076561
3363.302,0.0644157453062,0.031492169381
3365.23,0.063323002661,0.0314398599691
3367.158,0.0622401031751,0.0332924450914
3369.087,0.0611664928379,0.0320069126003
3371.015,0.0601032847757,0.0303130702228
3372.944,0.0590493760757,0.030244114271
3374.872,0.0580058594373,0.0307741365194
3376.801,0.0569716523745,0.0312810515576
3378.729,0.0559478271599,0.0312102138792
3380.658,0.0549333217342,0.0296150457984
3382.586,0.0539291879434,0.0312703976221
3384.515,0.0529343841549,0.0308031575412
3386.443,0.0519499417879,0.030352241574
3388.372,0.0509748396366,0.0331734975715
3390.3,0.0500100886934,0.0339684820131
3392.229,0.0490546881793,0.0319791741476
3394.157,0.0481096286599,0.0327347057179
3396.086,0.047173929783,0.0330585578345
3398.014,0.0462485616874,0.033477810495
3399.943,0.0453325644476,0.0325251126978
3401.871,0.0444268877758,0.0328733244955
3403.8,0.0435305921732,0.0331577227969
3405.728,0.0426446069252,0.0335349644889
3407.657,0.0417680129598,0.0335284087525
3409.585,0.0409017191356,0.0348124221765
3411.514,0.0400448268074,0.0340864276149
3413.442,0.0391982244069,0.0325010579139
3415.371,0.0383610337159,0.0311385619578
3417.299,0.0375341227392,0.0326067344325
3419.228,0.0367166336854,0.0337741678915
3421.156,0.0359094141325,0.0329360826834
3423.085,0.0351116267159,0.0307811257353
3425.013,0.0343240985868,0.0315710292814
3426.942,0.0335460128074,0.0315553720102
3428.87,0.0327781761021,0.0312186903692
3430.799,0.0320197919598,0.0301213179159
3432.727,0.0312716466783,0.0285048114234
3434.656,0.0305329641732,0.0274025457833
3436.584,0.0298045103155,0.0269118042504
3438.513,0.0290855294476,0.0247732090544
3440.441,0.0283767670137,0.0241451676876
3442.37,0.027677487783,0.0234364311496
3444.298,0.0269884167728,0.0256802378314
3446.227,0.0263088391793,0.0254295111694
3448.155,0.025639459593,0.0237534950214
3450.084,0.0249795836366,0.0229725036979
3452.012,0.0243298954741,0.0240714994516
3453.941,0.0236897211549,0.0242756078656
3455.869,0.0230597244161,0.0239128824776
3457.798,0.0224392517342,0.0249568869498
3459.726,0.0218289464192,0.026465605284
3461.655,0.0212281753744,0.0252351825554
3463.583,0.0206375614832,0.0234424445817
3465.512,0.0200564920756,0.0233192281306
3467.44,0.0194855696082,0.0240833174837
3469.369,0.0189242018378,0.0238089428099
3471.297,0.0183729707942,0.0257513595404
3473.226,0.017831304661,0.0246473671272
3475.154,0.0172997650412,0.02416303694
3477.083,0.0167778005451,0.0256429515018
3479.011,0.0162659523491,0.0274706290721
3480.94,0.0157636894902,0.027541273615
3482.868,0.015271532718,0.0293989918954
3484.797,0.0147889714963,0.0304250687342
3486.725,0.0143165061479,0.0312454568563
3488.654,0.0138536465634,0.0302257530121
3490.582,0.0134008726387,0.0293990363879
3492.511,0.0129577146914,0.0313976375779
3494.439,0.0125246321906,0.0316224920387
3496.368,0.0121011758804,0.029201613971
3498.296,0.0116877848034,0.0326205645346
3500.225,0.0112840301304,0.0343962488547
3502.153,0.0108903304771,0.0359722996654
3504.082,0.0105062774414,0.0367919131985
3506.01,0.0101322692119,0.0383148651255
3507.939,0.00976791781333,0.0383743545004
3509.867,0.00941360100764,0.0388225255465
3511.796,0.00906895124625,0.0403709557587
3513.724,0.00873432586435,0.0398945026002
3515.653,0.00840937774014,0.0386586501584
3517.581,0.00809444378203,0.036822719869
3519.51,0.00778919729501,0.0348689448257
3521.438,0.00749395476068,0.0355742247602
3523.367,0.00720840991086,0.0358465784648
3525.295,0.00693285880032,0.0373101413008
3527.224,0.00666701558767,0.0385360067514
3529.152,0.00641115590093,0.0408118805895
3531.081,0.00616501432547,0.0410991623651
3533.009,0.00592884606251,0.040279735763
3534.938,0.00570240612424,0.0411009902166
3536.866,0.00548592928507,0.0426541697749
3538.795,0.00527919098398,0.0411180090565
3540.723,0.0050824055686,0.0395694694946
3542.652,0.0048953689047,0.0393733059159
3544.58,0.00471827491312,0.0421618423415
3546.509,0.0045509398864,0.0412824271408
3548.437,0.0043935373186,0.0402549515119
3550.366,0.00424590392907,0.0399066281643
3552.294,0.00410819278506,0.0414107094691
3554.223,0.00398026103271,0.0437018879615
3556.151,0.0038622413125,0.0471543360654
3558.08,0.00375401119733,0.050972613689
3560.008,0.00365568290091,0.0547988809321
3561.937,0.00356715442293,0.0579658487106
3563.865,0.0034885175503,0.0586490544703
3565.794,0.0034196907095,0.0555163246549
3567.722,0.00336074526066,0.0524273877627
3569.651,0.00331162005704,0.0493929690464
3571.579,0.003272366032,0.0473217409123
3573.508,0.00324294246557,0.0448755251378
3575.436,0.00322337986431,0.0434797435563
3577.365,0.00321365793506,0.0410574933841
3579.293,0.00321378675759,0.0410167297692
3581.222,0.00322376646553,0.0413555320283
3583.15,0.00324358671186,0.0423277768786
3585.079,0.00327326805698,0.0447169270305
3587.007,0.0033127797271,0.0474266825189
3588.936,0.0033621627094,0.0537275471865
3590.864,0.00342136580331,0.0626158322155
3592.793,0.0034904504228,0.0718773348799
3594.721,0.0035693449405,0.0873910816237
3596.65,0.00365813119718,0.101750945928
3598.578,0.00375671713866,0.107462124467
3600.507,0.00386520503253,0.0940775827973
3602.435,0.0039834823978,0.0723148598644
3604.364,0.00411167192885,0.0559338653197
3606.292,0.00424964071792,0.0466400792861
3608.221,0.00439753188615,0.0384587301173
3610.149,0.00455519209901,0.0349545622728
3612.078,0.00472278490443,0.0342111582877
3614.006,0.00490013654107,0.0303982562619
3615.935,0.00508743098368,0.0277162686019
3617.863,0.00528447404411,0.0261751944083
3619.792,0.0054914701239,0.026493873048
3621.72,0.00570820460813,0.0277022876591
3623.649,0.0059349023251,0.0262845457695
3625.577,0.00617132823312,0.0270496360851
3627.506,0.00641772758728,0.0226898232062
3629.434,0.00667384491909,0.0190727435778
3631.363,0.00693994591042,0.0268916016485
3633.291,0.00721575466603,0.0276923621843
3635.22,0.00750155729455,0.0268772458996
3637.148,0.00779705747394,0.0269833933499
3639.077,0.00810256173965,0.0277414693935
3641.005,0.00841775334284,0.0280767377114
3642.934,0.00874295924573,0.0249241285942
3644.862,0.0090778422727,0.0229347929239
3646.791,0.00942274981278,0.0184237578189
3648.719,0.00977732426355,0.00957636015978
3650.648,0.0101419334408,0.0108802539644
3652.576,0.0105161993154,0.0217807783456
3654.505,0.0109005101298,0.0233665979264
3656.433,0.0112944674282,0.0197094242124
3658.362,0.0116984798798,0.0202087272364
3660.29,0.0121121286019,0.0212481261236
3662.219,0.0125358426907,0.020063368873
3664.147,0.0129691828367,0.0169926083288
3666.076,0.0134125985627,0.0128784658263
3668.004,0.0138656301324,0.0101078359547
3669.933,0.0143287474956,0.00621239270456
3671.861,0.0148014704891,0.0118958912819
3673.79,0.0152842894895,0.0120986075084
3675.718,0.0157767039068,0.00540013830491
3677.647,0.0162792245443,0.00758355722057
3679.575,0.0167913303854,0.01041017573
3681.504,0.0173135526601,0.011734915954
3683.432,0.017845349925,0.0108591380968
3685.361,0.018387273837,0.00723897704751
3687.289,0.0189387625256,0.00248785225251
3689.218,0.0195003880747,-5.01202085572e-05
3691.146,0.0200715681872,0.00172207378188
3693.075,0.0206528953735,0.0034543016345
3695.003,0.0212437669097,0.00484179864167
3696.932,0.0218447957332,0.00365929807048
3698.86,0.0224553586933,0.00304873511045
