baseline wavenumber (cm-1),baseline absorbance (cm-1),baseline-subtracted absorbance (cm-1)
3199.379,0.140698979076,1.93178806285e-14
3201.308,0.139013015057,0.00339828586326
3203.236,0.137337770758,0.00689451469607
3205.165,0.135671508376,0.0084859767145
3207.093,0.134015955501,0.00531387367067
3209.021,0.132370245786,0.00460286651543
3210.95,0.130733533306,0.00497100525699
3212.878,0.129107515014,0.00792877327051
3214.807,0.127490504171,0.011245470761
3216.736,0.1258833467,0.0108941727582
3218.664,0.124286868097,0.0100935018617
3220.593,0.122699412263,0.0104037920226
3222.521,0.121122625084,0.00990436369601
3224.449,0.119555681064,0.0108557209376
3226.378,0.117997775132,0.00818589008584
3228.306,0.116450522536,0.0061563712276
3230.235,0.114912318241,0.00774410549293
3232.164,0.113383967319,0.0106320035695
3234.092,0.111866254411,0.012363504004
3236.021,0.110357605126,0.0130311546029
3237.949,0.108859583642,0.0146287414363
3239.877,0.107371405317,0.016371139917
3241.806,0.105892305934,0.0128957260078
3243.734,0.104423819033,0.0119655471857
3245.663,0.102964421287,0.0141107834033
3247.592,0.101514876914,0.0176597920443
3249.52,0.100075929701,0.0166985573102
3251.448,0.0986468256472,0.015366618202
3253.377,0.0972268311757,0.0162943454138
3255.305,0.0958174185459,0.0171387120515
3257.234,0.0944171257115,0.0191793566497
3259.162,0.0930274045055,0.01933285022
3261.091,0.0916468133084,0.0178407031174
3263.02,0.0902760754838,0.0193261685271
3264.948,0.0889158939662,0.020146069038
3266.876,0.0875655556078,0.0200009055264
3268.805,0.086224367685,0.0221962327396
3270.733,0.0848937207503,0.0218752067742
3272.662,0.0835722344647,0.0184731511615
3274.591,0.0822606015517,0.0194138147022
3276.519,0.0809594943054,0.022349916389
3278.448,0.0796675630296,0.0243428483724
3280.376,0.0783861472072,0.0257870055271
3282.304,0.0771145745439,0.0262297092932
3284.233,0.0758521931698,0.0243383455949
3286.161,0.0746003119304,0.02264521521
3288.09,0.0733576321935,0.0212218684635
3290.019,0.0721248058292,0.0236191545468
3291.947,0.0709024642781,0.0221522208528
3293.875,0.0696899658862,0.0245119950963
3295.804,0.0684866894237,0.0279981988811
3297.732,0.0672938824556,0.0269651896155
3299.661,0.0661103076303,0.0266775221483
3301.589,0.064937192086,0.0260230828559
3303.518,0.0637733188979,0.022142480152
3305.447,0.0626192990824,0.0219885044151
3307.375,0.0614757232264,0.0258784666048
3309.303,0.0603419905297,0.030031000474
3311.232,0.0592175206159,0.0293552075757
3313.16,0.058103479343,0.0266786898676
3315.089,0.0569987110664,0.0230690135874
3317.017,0.0559043612173,0.0222261350933
3318.946,0.0548192945779,0.0241223813546
3320.875,0.0537440813111,0.0250702318396
3322.803,0.0526792711503,0.0230869271717
3324.731,0.0516243041487,0.0256192013602
3326.66,0.0505786407837,0.0277307699107
3328.588,0.0495433652059,0.0270420992639
3330.517,0.0485174034781,0.0279209873032
3332.445,0.0475018193241,0.0310405843957
3334.374,0.0464955592335,0.0291018328619
3336.302,0.0454996665033,0.0273002930641
3338.231,0.0445131080498,0.0283191976209
3340.159,0.0435369067434,0.0268942061647
3342.088,0.0425700499271,0.0235918827525
3344.016,0.0416135400445,0.0266155107995
3345.945,0.0406663848654,0.0290622111115
3347.873,0.0397295664066,0.0291332658991
3349.802,0.0388021128647,0.027132891684
3351.73,0.0378849858296,0.0293691332444
3353.659,0.0369772339249,0.0318062493461
3355.587,0.0360797983137,0.0320638386013
3357.516,0.0351917480461,0.0302631190316
3359.444,0.0343140038587,0.0300400848909
3361.373,0.0334456552283,0.0314795444078
3363.302,0.0325871599706,0.0309805141425
3365.23,0.0317389554715,0.0328809778147
3367.158,0.0309005941316,0.0305150532959
3369.087,0.0300716487756,0.0292222964382
3371.015,0.0292529788595,0.0324052643427
3372.944,0.0284437351407,0.0291596207675
3374.872,0.0276447566484,0.0288421532879
3376.801,0.0268552145668,0.0301093058011
3378.729,0.0260759274983,0.0303988526492
3380.658,0.0253060870539,0.0284374689958
3382.586,0.0245464914092,0.0324165127352
3384.515,0.0237963526019,0.0348334866784
3386.443,0.023056448381,0.0316463717949
3388.372,0.0223260112109,0.0284745548459
3390.3,0.0216057984138,0.0306275989378
3392.229,0.0208950628809,0.0282624222095
3394.157,0.0201945415076,0.0290271303816
3396.086,0.0195035076119,0.0284000605676
3398.014,0.0188226776624,0.0284122359129
3399.943,0.0181513454039,0.0294267401112
3401.871,0.0174902068781,0.0299261481204
3403.8,0.0168385762568,0.0303169882838
3405.728,0.0161971291548,0.0282080057891
3407.657,0.0155652001707,0.0271634968879
3409.585,0.0149434444925,0.0282744873785
3411.514,0.0143312171455,0.0272183633659
3413.442,0.0137291528911,0.0265948135498
3415.371,0.0131366271814,0.0280869652577
3417.299,0.0125542543508,0.0266123280812
3419.228,0.0119814302782,0.0222053684684
3421.156,0.0114187488714,0.0187197328834
3423.085,0.010865626436,0.013248898986
3425.013,0.010322636453,0.0121093861893
3426.942,0.00978921565475,0.0121449802413
3428.87,0.00926591709553,0.0116412900206
3430.799,0.00875219793449,0.0115753063615
3432.727,0.00824859079907,0.0109932974047
3434.656,0.00775457327521,0.00739704908403
3436.584,0.00727065756358,0.00397062415076
3438.513,0.00679634167691,0.00163790475996
3440.441,0.00633211738907,0.00243519283028
3442.37,0.00587750313958,1.90654403176e-06
3444.298,0.00543297027552,-0.00308686697016
3446.227,0.00499805766323,-0.00499805766323
3448.155,0.00457321622296,0.000868004842438
3450.084,0.00415800524785,0.00343372627949
3452.012,0.00375285523138,0.00176367160578
3453.941,0.00335734589344,-0.000522007775584
3455.869,0.00297188730076,0.00210948336537
3457.798,0.00259607960001,0.00653866213657
3459.726,0.00223031243112,0.00336859588789
3461.655,0.00187420636756,-0.00116410831843
3463.583,0.00152813062246,0.000765410265036
3465.512,0.00119172619608,0.00202317322775
3467.44,0.000865341874775,0.00311525046324
3469.369,0.000548639085583,0.00437100106402
3471.297,0.000241946188059,0.0066518170789
3473.226,-5.50549639442e-05,0.00545483258448
3475.154,-0.000342056437674,0.00451621998766
3477.083,-0.000619355952498,0.0101826835579
3479.011,-0.000886666002437,0.0122361049997
3480.94,-0.00114426388008,0.00862379486158
3482.868,-0.00139188250622,0.0102628013377
3484.797,-0.00162977874668,0.0150609927364
3486.725,-0.00185770594904,0.0140456165929
3488.654,-0.0020759005523,0.0107305048179
3490.582,-0.00228413633087,0.015289796899
3492.511,-0.00248262929696,0.0211220713267
3494.439,-0.00267117365173,0.022420996759
3496.368,-0.00284996498063,0.0221959672044
3498.296,-0.00301881791161,0.026276171596
3500.225,-0.00317790760333,0.0261446517659
3502.153,-0.00332706911053,0.0244142014263
3504.082,-0.00346645716506,0.0272448863574
3506.01,-0.00359592724846,0.0349736690861
3507.939,-0.0037156136658,0.0388333736982
3509.867,-0.00382539232542,0.0416142329198
3511.796,-0.00392537710558,0.0427998337921
3513.724,-0.0040154643414,0.0417916697392
3515.653,-0.00409574748438,0.0392600050402
3517.581,-0.00416614329641,0.0405944259205
3519.51,-0.0042267248022,0.0437203061223
3521.438,-0.00427742919045,0.0464719101366
3523.367,-0.00431830905905,0.051543114477
3525.295,-0.0043493220235,0.0542169051631
3527.224,-0.00437050025493,0.0500896956456
3529.152,-0.00438182179559,0.0512462714064
3531.081,-0.00438329838982,0.0505002497696
3533.009,-0.00437492850669,0.0498757877001
3534.938,-0.00435670346375,0.0487759898278
3536.866,-0.00432864215682,0.0497981660626
3538.795,-0.00429071547669,0.0504865104833
3540.723,-0.00424296274598,0.0539321369095
3542.652,-0.00418533442867,0.0513580828366
3544.58,-0.00411789027417,0.0413689769011
3546.509,-0.00404056031966,0.0390703793836
3548.437,-0.00395342474137,0.044408797227
3550.366,-0.00385639314969,0.0422001715789
3552.294,-0.0037495661476,0.0443464528352
3554.223,-0.00363283291873,0.0534781781123
3556.151,-0.00350631449286,0.0604460698755
3558.08,-0.0033698796268,0.0647228564791
3560.008,-0.00322366977714,0.070966012848
3561.937,-0.0030675332739,0.0827951184351
3563.865,-0.00290163200044,0.0876741984616
3565.794,-0.00272579386002,0.0784434730271
3567.722,-0.00254020116277,0.0759087445773
3569.651,-0.00234466138516,0.085753132021
3571.579,-0.00213937726413,0.0907469785984
3573.508,-0.00192413584933,0.0871353963365
3575.436,-0.00169916030451,0.0754078432116
3577.365,-0.00146421725253,0.0618356920327
3579.293,-0.00121955028391,0.0571575872798
3581.222,-0.000964905594746,0.0556449824167
3583.15,-0.000700547202342,0.0524128690461
3585.079,-0.000426200875992,0.0458052567741
3587.007,-0.000142151059794,0.0424124431855
3588.936,0.000151896903741,0.0568550777248
3590.864,0.00045563814373,0.0695145427923
3592.793,0.000769387744445,0.0817707921808
3594.721,0.00109282040822,0.101304834499
3596.65,0.00142627164613,0.121717870677
3598.578,0.0017693957337,0.125008629132
3600.507,0.00212254860879,0.10279961858
3602.435,0.00248536412014,0.0737634987122
3604.364,0.00285821863242,0.0538945358404
3606.292,0.00324072556757,0.0368057719559
3608.221,0.00363328171703,0.0273952232865
3610.149,0.00403548007597,0.0288519150519
3612.078,0.00444773786261,0.0253945748838
3614.006,0.00486962764534,0.0264823383913
3615.935,0.00530158706917,0.0240979883882
3617.863,0.00574316827569,0.0156355843777
3619.792,0.0061948293367,0.0113984184142
3621.72,0.00665610196701,0.0223623959608
3623.649,0.00712746466521,0.0254389964689
3625.577,0.00760842871931,0.0226998700778
3627.506,0.00809949305469,0.0132398377853
3629.434,0.00860014853259,0.00925692212343
3631.363,0.00911091450515,0.0190160439503
3633.291,0.00963126140684,0.0173837997475
3635.22,0.0101617290166,0.0191473784331
3637.148,0.0107017673421,0.0249087653578
3639.077,0.011251936589,0.0251071051577
3641.005,0.0118116663383,0.0235830572036
3642.934,0.0123815372224,0.0235074752107
3644.862,0.0129609583954,0.0211252641862
3646.791,0.0135505309167,0.0111871624018
3648.719,0.0141496435136,0.00425731089862
3650.648,0.0147589176721,0.00555241357224
3652.576,0.0153777216927,0.0172822398963
3654.505,0.0160066974884,0.0175518792831
3656.433,0.0166451929328,0.0152465487027
3658.362,0.0172938703657,0.0185132659934
3660.29,0.0179520572339,0.0227787625377
3662.219,0.0186204363039,0.0239101408718
3664.147,0.019298314596,0.0236664079351
3666.076,0.0199863953032,0.0194435046261
3668.004,0.020683965019,0.00993566502247
3669.933,0.0213917473634,0.00179383840433
3671.861,0.022109008503,0.00820484978066
3673.79,0.0228364924846,-5.70303749159e-06
3675.718,0.023573445048,-0.0074494179581
3677.647,0.0243206306667,0.00540139500798
3679.575,0.0250772746539,0.00878707387535
3681.504,0.0258441619099,0.0111031745907
3683.432,0.0266204973208,0.0123899140812
3685.361,0.027407086214,0.00966154817396
3687.289,0.0282031130487,-0.00115216793604
3689.218,0.0290094035791,-0.0113448933193
3691.146,0.0298251218376,-0.00535327305565
3693.075,0.0306511140051,0.00521717670546
3695.003,0.0314865236875,0.00627047621144
3696.932,0.0323322174922,0.00745197334983
3698.86,0.0331873185983,0.0065968722437
