baseline wavenumber (cm-1),baseline absorbance (cm-1),baseline-subtracted absorbance (cm-1)
3199.379,0.179954427902,1.99840144433e-14
3201.308,0.17806333765,0.000357330554871
3203.236,0.176183073456,0.000699256871849
3205.165,0.17431168484,0.00212247326418
3207.093,0.17245111207,0.00216924859212
3209.021,0.17060038246,0.0019970873101
3210.95,0.168758543746,0.00280764762885
3212.878,0.166927505559,0.0043887382375
3214.807,0.165105368482,0.00543408772777
3216.736,0.163293084778,0.00581909806924
3218.664,0.16149158628,0.00476692354043
3220.593,0.159699004213,0.00496000885756
3222.521,0.157917197138,0.00542487317686
3224.449,0.156145233223,0.00643633524
3226.378,0.154382201058,0.00730906894991
3228.306,0.152629928566,0.00823290081803
3230.235,0.150886598038,0.00793265128036
3232.164,0.149153120883,0.0085887537241
3234.092,0.14743038808,0.00907698593321
3236.021,0.145716612561,0.00930229426755
3237.949,0.144013571182,0.00992568932
3239.877,0.142320372962,0.0104723858278
3241.806,0.140636147345,0.0105913636634
3243.734,0.138962640549,0.011655238811
3245.663,0.137298116569,0.0122733169945
3247.592,0.135643445963,0.0119798852737
3249.52,0.133999478855,0.012074995179
3251.448,0.132365354906,0.0136536567668
3253.377,0.130740234201,0.0139449548674
3255.305,0.129125801676,0.0136081746993
3257.234,0.127520382608,0.0137415171612
3259.162,0.125925641507,0.0144525649655
3261.091,0.124339924076,0.0151476344615
3263.02,0.122764060018,0.0160799673808
3264.948,0.121198858605,0.015780172638
3266.876,0.119643500352,0.0165841504485
3268.805,0.118097186196,0.0172821386104
3270.733,0.116561519366,0.0178944112976
3272.662,0.115034906847,0.017919870535
3274.591,0.1135181477,0.0184268442616
3276.519,0.112012020559,0.0194651584445
3278.448,0.11051496305,0.0200953326099
3280.376,0.109028527332,0.0200334003958
3282.304,0.107551934773,0.0210663290136
3284.233,0.106084427166,0.0213809044899
3286.161,0.104627526031,0.0217414192404
3288.09,0.103179720061,0.0225289889626
3290.019,0.101741767463,0.022700184029
3291.947,0.100314406017,0.0225488427424
3293.875,0.0988968877298,0.0238861555358
3295.804,0.0974884850339,0.0246055598393
3297.732,0.0960906581705,0.0253021565356
3299.661,0.0947019571118,0.0255536520306
3301.589,0.0933238216722,0.0262493942361
3303.518,0.0919548222507,0.0269319814118
3305.447,0.0905956762018,0.0283883875432
3307.375,0.0892470804506,0.0288391710347
3309.303,0.0879083278586,0.0290156603989
3311.232,0.0865787317115,0.0289503799122
3313.16,0.0852596705433,0.0282574888892
3315.089,0.0839497760333,0.0279304224709
3317.017,0.0826504062889,0.0295488667942
3318.946,0.0813602134161,0.0311382139271
3320.875,0.080079873916,0.0314760078203
3322.803,0.0788100438599,0.0314587057032
3324.731,0.0775500569631,0.0321864356629
3326.66,0.0762992673647,0.0329986287701
3328.588,0.0750589718917,0.0330003696894
3330.517,0.0738278839304,0.0324253487529
3332.445,0.0726072798812,0.0315116828643
3334.374,0.0713958935571,0.0310113196951
3336.302,0.0701949809317,0.0322639552534
3338.231,0.0690032962448,0.0337177493972
3340.159,0.0678220750432,0.0343446964673
3342.088,0.0666500919935,0.0342333916159
3344.016,0.0654885622156,0.0346016034375
3345.945,0.0643362808031,0.0348081939295
3347.873,0.0631944424491,0.0349313001944
3349.802,0.0620618626738,0.035443554255
3351.73,0.0609397157435,0.0368994538938
3353.659,0.0598268376053,0.0372336922052
3355.587,0.0587243820988,0.0376892615721
3357.516,0.0576312055979,0.0382050983093
3359.444,0.0565484415152,0.0383030297925
3361.373,0.0554749666515,0.0380467360116
3363.302,0.0544113451603,0.0375806867122
3365.23,0.053358120766,0.0373719414413
3367.158,0.0523147395308,0.0380165668227
3369.087,0.0512806679415,0.0381259162481
3371.015,0.0502569781301,0.0382290776468
3372.944,0.0492426081779,0.0382981061577
3374.872,0.0482386097904,0.0393548759159
3376.801,0.0472439414754,0.0399616222347
3378.729,0.0462596345116,0.0394386250816
3380.658,0.0452846678338,0.0395070425178
3382.586,0.0443200522938,0.0403622710444
3384.515,0.0433647872532,0.0391186124812
3386.443,0.042419863137,0.0392698691619
3388.372,0.0414842997336,0.0396962412604
3390.3,0.0405590670412,0.0404813327631
3392.229,0.0396432052749,0.0407282911954
3394.157,0.0387376640063,0.0413483078956
3396.086,0.0378415038772,0.0421672331047
3398.014,0.0369556540324,0.0422524259284
3399.943,0.0360791955405,0.0421737575594
3401.871,0.0352130371195,0.0428312768527
3403.8,0.0343562802648,0.0427402459112
3405.728,0.0335098132676,0.0436206123982
3407.657,0.03267275805,0.0437447298929
3409.585,0.0318459824766,0.0434786837707
3411.514,0.0310286288963,0.0423791435228
3413.442,0.0302215447466,0.0423771831488
3415.371,0.0294238928035,0.0429074834459
3417.299,0.0286365000776,0.0428026555805
3419.228,0.0278585497716,0.0423437987291
3421.156,0.0270908484696,0.0434903355662
3423.085,0.0263325998008,0.0435559163102
3425.013,0.0255845899225,0.0431855925057
3426.942,0.0248460428909,0.0425723536982
3428.87,0.0241177244364,0.0415190268042
3430.799,0.023398879042,0.0406935232785
3432.727,0.0226902520113,0.0412595627647
3434.656,0.0219911082541,0.0414694355357
3436.584,0.0213021726472,0.0424355082084
3438.513,0.0206227305271,0.0418473889948
3440.441,0.019953486344,0.0408013888919
3442.37,0.0192937458611,0.040222574821
3444.298,0.0186441931018,0.0407966400568
3446.227,0.0180041542561,0.0404333239014
3448.155,0.0173742929206,0.0413354295928
3450.084,0.0167539557121,0.0422171772997
3452.012,0.0161437858004,0.0414829004371
3453.941,0.0155431502291,0.041068298712
3455.869,0.0149526717411,0.0409664587544
3457.798,0.014371737807,0.0408910706085
3459.726,0.0138009507428,0.0418218213268
3461.655,0.0132397184459,0.0415394106518
3463.583,0.0126886228055,0.0408592908032
3465.512,0.0121470921458,0.0410709130265
3467.44,0.0116156879292,0.0420339241488
3469.369,0.0110938589066,0.0417659300079
3471.297,0.0105821461138,0.0419082432061
3473.226,0.0100800187284,0.0425767227268
3475.154,0.00958799735944,0.0434783338071
3477.083,0.00910557161124,0.0436734875906
3479.011,0.00863324166604,0.0443198582151
3480.94,0.00817051755501,0.0446364999888
3482.868,0.0077178790336,0.0453481026537
3484.797,0.00727485655976,0.0453095426854
3486.725,0.00684190946214,0.0457763892727
3488.654,0.00641858862549,0.0449562628458
3490.582,0.00600533295166,0.0451689174153
3492.511,0.00560171375219,0.045629851216
3494.439,0.00520814950215,0.0460691972512
3496.368,0.00482423193987,0.0456629421707
3498.296,0.00445035911362,0.0463335229022
3500.225,0.00408614318852,0.0473533619488
3502.153,0.00373196178606,0.0480800882594
3504.082,0.00338744749815,0.0478996846749
3506.01,0.00305295751948,0.0481394657698
3507.939,0.00272814486875,0.0494456162272
3509.867,0.00241334631388,0.0529480152574
3511.796,0.00210823530033,0.0534048002767
3513.724,0.00181312816925,0.0507174512674
3515.653,0.00152771879289,0.0493022944873
3517.581,0.00125230308559,0.0501442161008
3519.51,0.000986595346415,0.0506482687061
3521.438,0.00073087106291,0.0504070334594
3523.367,0.000484864960921,0.0493854782277
3525.295,0.000248832101203,0.0490448702822
3527.224,2.25276363999e-05,0.0500529598872
3529.152,-0.000193813799523,0.0504905217047
3531.081,-0.000400416627148,0.0499974670221
3533.009,-0.00059706663928,0.0512754059138
3534.938,-0.000783967829715,0.0513134289327
3536.866,-0.000960926418056,0.0509752550684
3538.795,-0.00112812597131,0.0496005520564
3540.723,-0.00128539313586,0.0485465240508
3542.652,-0.00143289105193,0.0479052472412
3544.58,-0.00157046679269,0.0487424804923
3546.509,-0.00169826307157,0.0488182043591
3548.437,-0.00181614738854,0.0485596994959
3550.366,-0.00192424203024,0.0489033431695
3552.294,-0.00202243492342,0.0499500228175
3554.223,-0.00211082792793,0.0526346973625
3556.151,-0.00218932939732,0.056765760515
3558.08,-0.00225802076465,0.0604543582218
3560.008,-0.00231683081025,0.0665081357659
3561.937,-0.00236582054039,0.0711534769324
3563.865,-0.0024049391622,0.0743543345631
3565.794,-0.00243422725516,0.0742910106479
3567.722,-0.00245365445318,0.0687753850746
3569.651,-0.00246324090895,0.0641917654074
3571.579,-0.00246297668318,0.0620247296712
3573.508,-0.00245286150177,0.0584174243032
3575.436,-0.00243290585221,0.0551064223127
3577.365,-0.00240308903361,0.0516569507796
3579.293,-0.00236344196026,0.0492415435888
3581.222,-0.00231392350448,0.0489103448367
3583.15,-0.00225458500734,0.0500839692249
3585.079,-0.00218536491437,0.0517663392626
3587.007,-0.00210633499344,0.0559464132768
3588.936,-0.00201741326328,0.0634897694526
3590.864,-0.00191869191856,0.072710961437
3592.793,-0.00181006855123,0.0853789509165
3594.721,-0.00169165578271,0.10311648279
3596.65,-0.00156333077819,0.121774835636
3598.578,-0.00142522658588,0.128252374136
3600.507,-0.00127719994418,0.11223966587
3602.435,-0.00111940432808,0.0827979532901
3604.364,-0.000951676049194,0.0604337477623
3606.292,-0.000774189009306,0.0488331811111
3608.221,-0.000586759093235,0.0421692012544
3610.149,-0.000389580629555,0.0371684301438
3612.078,-0.000182449076295,0.0325980498312
3614.006,3.4420811172e-05,0.0292991222097
3615.935,0.000261254001614,0.0297590157964
3617.863,0.000497815312873,0.0293124174403
3619.792,0.000744350140501,0.0266663579045
3621.72,0.00100060287555,0.0268958813629
3623.649,0.00126683934036,0.0261194051553
3625.577,0.0015427834992,0.0260933386788
3627.506,0.0018287216012,0.0269075613372
3629.434,0.00212435718383,0.0250979815315
3631.363,0.00242999692301,0.0233388574839
3633.291,0.00274532392943,0.0235540400183
3635.22,0.0030706653058,0.0231434256986
3637.148,0.00340568373601,0.0229744099244
3639.077,0.00375072674957,0.021965705766
3641.005,0.00410543660357,0.0225678701693
3642.934,0.0044701812543,0.0219605869011
3644.862,0.00484458253209,0.0211668104923
3646.791,0.00522902882002,0.018633416137
3648.719,0.0056231215216,0.0158450409164
3650.648,0.0060272694467,0.0148237125901
3652.576,0.00644105357208,0.0166472947889
3654.505,0.00686490313437,0.0178995478337
3656.433,0.00729837868354,0.0174241347714
3658.362,0.00774192988301,0.0172853295005
3660.29,0.00819509685596,0.0175615257763
3662.219,0.00865834969262,0.0171982240126
3664.147,0.00913120808937,0.0168312578364
3666.076,0.00961416256321,0.0155892343753
3668.004,0.0101067123838,0.0159095733505
3669.933,0.0106093684948,0.0150196942018
3671.861,0.0111216097391,0.0122466715218
3673.79,0.0116439674873,0.0131833897504
3675.718,0.0121759001554,0.0112018170459
3677.647,0.0127179595408,0.00763885879984
3679.575,0.0132695836327,0.00840861585003
3681.504,0.0138313446553,0.00880932075322
3683.432,0.014402660171,0.00897505703034
3685.361,0.0149841228308,0.00614574366812
3687.289,0.0155751297703,0.00303254479461
3689.218,0.0161762940672,-7.12405969069e-05
3691.146,0.0167869924305,0.00202827282426
3693.075,0.0174078583647,0.00175129449758
3695.003,0.0180382481517,0.00217807952005
3696.932,0.018678815723,0.00111149671143
3698.86,0.0193288969339,0.000461415500563
