baseline wavenumber (cm-1),baseline absorbance (cm-1),baseline-subtracted absorbance (cm-1)
3199.379,0.14025320934,1.44328993201e-14
3201.308,0.138892200948,0.000818705753346
3203.236,0.137538930759,0.00251262084272
3205.165,0.136191994966,0.00531614210076
3207.093,0.13485279008,0.00380939530399
3209.021,0.133520616021,0.00238204242398
3210.95,0.132194787301,0.0027910612793
3212.878,0.130876678545,0.00572293734504
3214.807,0.129564922422,0.00719642398446
3216.736,0.128260204422,0.00509570379544
3218.664,0.126963195444,0.00481735646101
3220.593,0.125672550043,0.00673116975912
3222.521,0.124389606367,0.00686885921436
3224.449,0.12311369352,0.00622270595441
3226.378,0.121844155191,0.00193528481705
3228.306,0.120582307646,3.58061714993e-05
3230.235,0.119326841915,0.00180173384522
3232.164,0.118078414308,0.00381282191987
3234.092,0.11683766654,0.00312644950116
3236.021,0.115603311531,0.00370781755034
3237.949,0.114376629066,0.00596805909709
3239.877,0.11315697743,0.00848054405015
3241.806,0.111943729493,0.00551710139781
3243.734,0.110738143159,0.00398792577877
3245.663,0.10953896782,0.00430971306559
3247.592,0.108346830604,0.00616949406982
3249.52,0.107162344048,0.00674395333425
3251.448,0.105984888319,0.00744582026253
3253.377,0.104813858176,0.00836161943414
3255.305,0.103650467751,0.0078682828812
3257.234,0.102493510206,0.00780569125003
3259.162,0.101344185083,0.00842130566852
3261.091,0.100201300135,0.00715693295861
3263.02,0.0990654533118,0.00779899629908
3264.948,0.0979372279661,0.00911978204094
3266.876,0.0968160334485,0.0101954898508
3268.805,0.0957012936975,0.0129937431973
3270.733,0.0945941644826,0.0121838603835
3272.662,0.0934934973295,0.00750923187295
3274.591,0.0923998682997,0.00637755007688
3276.519,0.0913138388622,0.00713607521841
3278.448,0.0902342824305,0.00981373131662
3280.376,0.0891623182957,0.0120698660771
3282.304,0.0880973849889,0.0129816608011
3284.233,0.0870389356298,0.0118880834746
3286.161,0.0859880676257,0.00842212139681
3288.09,0.0849436908646,0.00635166949117
3290.019,0.0839063522268,0.00878140679471
3291.947,0.0828765840002,0.00763792120555
3293.875,0.0818538466015,0.0102213580887
3295.804,0.0808376150364,0.0121387318756
3297.732,0.0798289429404,0.0109574716962
3299.661,0.0788267839733,0.0118201380928
3301.589,0.07783217718,0.0113429971857
3303.518,0.0768440908109,0.00828630441805
3305.447,0.075863042565,0.00746557362823
3307.375,0.0748895355492,0.00956614018111
3309.303,0.0739230593614,0.0120447966985
3311.232,0.0729631181882,0.0108936492231
3313.16,0.0720107073031,0.00886920778839
3315.089,0.0710648387279,0.00658450929595
3317.017,0.0701264931455,0.00759159034789
3318.946,0.0691946971683,0.00833941786253
3320.875,0.0682699393144,0.00795567475615
3322.803,0.0673526935094,0.00619880755196
3324.731,0.0664424785324,0.00769984432215
3326.66,0.0655388277512,0.0094697641825
3328.588,0.0646426780769,0.00934751701054
3330.517,0.0637530998937,0.0088184153191
3332.445,0.0628710155221,0.0113728943131
3334.374,0.0619955099369,0.00936858588847
3336.302,0.061127490868,0.00795165600354
3338.231,0.0602660578807,0.0103444748191
3340.159,0.0594121041146,0.00843738542349
3342.088,0.0585647437253,0.0038116840519
3344.016,0.0577248552619,0.00627241553568
3345.945,0.0568915674706,0.00873715991241
3347.873,0.0560657443098,0.0110327091421
3349.802,0.0552465291166,0.010502990746
3351.73,0.0544347712585,0.00907730798944
3353.659,0.0536296286632,0.00748934434799
3355.587,0.0528319361079,0.00858472213531
3357.516,0.0520408661106,0.00874049444738
3359.444,0.051257238858,0.00886911310807
3361.373,0.0504802414587,0.00894056112903
3363.302,0.0497102821826,0.00886143519329
3365.23,0.0489477547074,0.0113797495886
3367.158,0.0481922580602,0.00996249782781
3369.087,0.0474434058569,0.00861896147357
3371.015,0.0467019745124,0.0120926277317
3372.944,0.045967194907,0.0104302578373
3374.872,0.0452398288652,0.00735897837223
3376.801,0.0445191218579,0.0071871350915
3378.729,0.0438058211188,0.00933225630972
3380.658,0.0430991867094,0.00871825997007
3382.586,0.042399951273,0.0108892431068
3384.515,0.0417073894616,0.0107216007334
3386.443,0.041022219328,0.00631731367517
3388.372,0.0403437301146,0.00386176872298
3390.3,0.0396726252836,0.00775687031934
3392.229,0.0390082086682,0.00724419201914
3394.157,0.03835116914,0.00747315108647
3396.086,0.0377008251225,0.00656330102726
3398.014,0.037057850897,0.00752013353645
3399.943,0.0364215794776,0.00813214537839
3401.871,0.0357926705547,0.00822835441242
3403.8,0.0351704717333,0.0103743579443
3405.728,0.0345556281132,0.0087421582004
3407.657,0.0339475018897,0.00601054925756
3409.585,0.0333467235723,0.0069635968563
3411.514,0.0327526699468,0.00619304924856
3413.442,0.0321659569321,0.00462520853843
3415.371,0.0315859759046,0.00432780151373
3417.299,0.0310133281926,0.00430710039324
3419.228,0.0304474197632,0.000723104850208
3421.156,0.0298888373538,-0.00259529646635
3423.085,0.0293370015224,-0.00762872294155
3425.013,0.0287924844158,-0.00865956214749
3426.942,0.0282547211823,-0.00860901209503
3428.87,0.0277242693784,-0.0089276455029
3430.799,0.0272005787429,-0.00852171489974
3432.727,0.0266841922417,-0.00857391224572
3434.656,0.0261745742042,-0.0119321805925
3436.584,0.0256722530057,-0.0157884968144
3438.513,0.0251767075662,-0.0177881500002
3440.441,0.0246884516704,-0.0162319672875
3442.37,0.0242069788288,-0.019024021182
3444.298,0.0237327882358,-0.0214902935426
3446.227,0.0232653879922,-0.0223687944412
3448.155,0.0228052627019,-0.0177567435469
3450.084,0.0223519350563,-0.0157568678371
3452.012,0.0219058750687,-0.018768303048
3453.941,0.0214666200211,-0.0214666200211
3455.869,0.0210346253361,-0.0172637772618
3457.798,0.0206094428866,-0.0130535953176
3459.726,0.0201915135043,-0.016197275154
3461.655,0.0197804036527,-0.0194473398703
3463.583,0.0193765395732,-0.0161510265842
3465.512,0.0189795023196,-0.015068150859
3467.44,0.0185897035428,-0.0154748748761
3469.369,0.0182067388872,-0.014171057092
3471.297,0.0178310054131,-0.0111990434197
3473.226,0.0174621133554,-0.0117515098985
3475.154,0.017100445184,-0.0126316288493
3477.083,0.0167456257244,-0.00764525172258
3479.011,0.0163980228557,-0.00609983221586
3480.94,0.0160572759941,-0.00963606908008
3482.868,0.0157237384281,-0.00884159954199
3484.797,0.0153970641644,-0.00498262971581
3486.725,0.0150775919011,-0.00564112166965
3488.654,0.0147649902355,-0.00609876158894
3490.582,0.0144595832749,-0.000304625223734
3492.511,0.0141610542072,0.00392193376409
3494.439,0.0138697125493,0.00382714381375
3496.368,0.0135852560796,0.00260599025615
3498.296,0.0133079797245,0.00568828025732
3500.225,0.0130375958528,0.00624017630935
3502.153,0.0127743848003,0.00458738614882
3504.082,0.0125180735266,0.00680569075115
3506.01,0.0122689277769,0.015220205954
3507.939,0.0120266891012,0.0201051212698
3509.867,0.0117916086541,0.023259942948
3511.796,0.0115634425764,0.0250023109867
3513.724,0.0113424274321,0.0236691969488
3515.653,0.0111283339523,0.021418921683
3517.581,0.0109213841107,0.0232704687145
3519.51,0.0107213632289,0.0274505765265
3521.438,0.01052847869,0.0298167148812
3523.367,0.0103425304063,0.0331114269373
3525.295,0.01016371117,0.0339629440407
3527.224,0.00999183548427,0.0285354059996
3529.152,0.00982708155077,0.0301602832526
3531.081,0.00966927846298,0.0318939480608
3533.009,0.00951858983219,0.0336968149995
3534.938,0.00937485934239,0.0316015886511
3536.866,0.0092382360143,0.0322739443152
3538.795,0.00910857812249,0.0334078476331
3540.723,0.00898602009712,0.0353978877165
3542.652,0.00887043480329,0.0333220245114
3544.58,0.00876194208062,0.0256780660059
3546.509,0.00866042938479,0.0220587660059
3548.437,0.00856600196483,0.0247727223857
3550.366,0.00847856186699,0.0237315867229
3552.294,0.00839819974973,0.0260433245604
3554.223,0.00832483224988,0.03542579951
3556.151,0.00825853543533,0.0426400797471
3558.08,0.00819924053347,0.0467982324272
3560.008,0.00814700902163,0.0536643727635
3561.937,0.00810178671775,0.0651949887801
3563.865,0.00806362050862,0.0707496818264
3565.794,0.00803247080274,0.0622010276305
3567.722,0.00800836989631,0.0579903160432
3569.651,0.00799129278841,0.0667332599256
3571.579,0.0079812571847,0.0723528174135
3573.508,0.00797825267479,0.0685905333355
3575.436,0.00798228237378,0.0552629415219
3577.365,0.00799335046186,0.0441986034449
3579.293,0.00801144546356,0.0420522359273
3581.222,0.00803658614963,0.0400838020036
3583.15,0.00806874645404,0.0360483060073
3585.079,0.0081079597381,0.0303950221683
3587.007,0.00815418534521,0.0298454103285
3588.936,0.00820747122726,0.0434714936974
3590.864,0.00826776213708,0.0530291144423
3592.793,0.00833512061712,0.0655438847402
3594.721,0.00840947682965,0.0846174108687
3596.65,0.00849090790767,0.104492009307
3598.578,0.00857932942291,0.107188385123
3600.507,0.00867483309892,0.0872510741082
3602.435,0.00877731991687,0.0618908292795
3604.364,0.00888689619087,0.0419637052445
3606.292,0.00900344831152,0.0253632756347
3608.221,0.00912709718352,0.0152355834998
3610.149,0.00925771460688,0.0142720539163
3612.078,0.00939543607686,0.0104352522887
3614.006,0.00954011880293,0.0115626811566
3615.935,0.0096919128709,0.00987646881312
3617.863,0.00985066089967,0.00387722750627
3619.792,0.0100165275656,0.00187369784628
3621.72,0.0101893408971,0.00886504098907
3623.649,0.0103692801611,0.0116720622022
3625.577,0.0105561587953,0.0108028829514
3627.506,0.0107501706572,0.00193859918007
3629.434,0.0109511145941,-0.00157731493777
3631.363,0.011159199054,0.0082964766763
3633.291,0.0113742082936,0.00547760612061
3635.22,0.0115963653515,0.00697484661652
3637.148,0.0118254398939,0.0130163674447
3639.077,0.0120616695498,0.0145768627458
3641.005,0.0123048093948,0.0130848600685
3642.934,0.0125551116487,0.0127243789002
3644.862,0.0128123167964,0.00923913372417
3646.791,0.0130766916483,-0.00122386641832
3648.719,0.0133479620987,-0.00299670363314
3650.648,0.0136264095486,0.00298230368299
3652.576,0.0139117453017,0.012045497193
3654.505,0.0142042653496,0.0097075915189
3656.433,0.0145036664054,0.00764785487223
3658.362,0.0148102590513,0.0120941177808
3660.29,0.0151237254099,0.0172324860528
3662.219,0.0154443906537,0.01940803025
3664.147,0.015771922315,0.0183451301464
3666.076,0.0161066601568,0.0134126969644
3668.004,0.0164482571208,0.0053171325487
3669.933,0.0167970675606,-0.000979823044253
3671.861,0.0171527298273,0.00474709833407
3673.79,0.0175156128651,-0.0036977618593
3675.718,0.0178853404345,-0.00782418608289
3677.647,0.0182622960703,0.00251956989558
3679.575,0.0186460889423,0.00586669787662
3681.504,0.0190371171761,0.00796480337375
3683.432,0.0194349753509,0.00718384603792
3685.361,0.0198400761827,0.00409654567113
3687.289,0.0202519996602,-0.00479005687239
3689.218,0.02067117309,-0.0102754387324
3691.146,0.0210971618702,-0.00447126477125
3693.075,0.021530407898,0.00317392850152
3695.003,0.0219704619809,0.0036006489056
3696.932,0.0224177806066,0.00424905452933
3698.86,0.0228718999923,0.0037949351437
