baseline wavenumber (cm-1),baseline absorbance (cm-1),baseline-subtracted absorbance (cm-1)
3199.3790000000004,0.2266114489410711,7.105427357601002e-15
3201.308,0.2246284450682623,0.0018348246598431928
3203.236,0.22265631490314064,0.00375837720561778
3205.165,0.2206930126675175,0.005279238677977638
3207.093,0.2187405739261834,0.006185685946606956
3209.0209999999997,0.21679797834406145,0.0058017979892022176
3210.95,0.2148642260102065,0.004792235861604599
3212.8779999999997,0.2129413218518721,0.005495457347121757
3214.8070000000002,0.21102727115519926,0.00681853858828374
3216.736,0.2091230738311367,0.007182930222823014
3218.664,0.20722970936117235,0.008874994629881172
3220.593,0.20534521367429193,0.009220383585790248
3222.5209999999997,0.20347154062811867,0.010958458672923221
3224.449,0.20160771074115402,0.011504402210548381
3226.3779999999997,0.19975276495604177,0.015163709497023614
3228.3059999999996,0.19790862649286822,0.01676810517694438
3230.235,0.1960733823449381,0.017112470733974483
3232.164,0.1942479915696076,0.01457496222923238
3234.092,0.1924333927948112,0.010644820667130794
3236.0209999999997,0.19062770365666282,0.010077545522061193
3237.949,0.18883279630565752,0.012080742521490606
3239.877,0.18704773211385728,0.013769699912423938
3241.8059999999996,0.18527159287747708,0.016222780506181422
3243.7340000000004,0.18350622010947149,0.021141504780442855
3245.663,0.18174978251027696,0.018691609815158383
3247.592,0.1800031982836856,0.011679893908947747
3249.52,0.17826736520405007,0.009267058504624615
3251.448,0.17654137528362313,0.009639165710296105
3253.377,0.1748243409587964,0.01217223414430002
3255.305,0.17311804246216056,0.016499976689303697
3257.2340000000004,0.17142070977452306,0.017937296795687896
3259.1620000000003,0.16973410270167477,0.022452239648224293
3261.091,0.1680564716512194,0.024424481728245517
3263.02,0.16638869397337075,0.020310474265953005
3264.948,0.16473162658889606,0.017706340839635626
3266.8759999999997,0.16308440236362998,0.0195772318014642
3268.805,0.16144617458754595,0.02292651011225244
3270.7329999999997,0.15981864178607097,0.02394210470166236
3272.6620000000003,0.15820011564716907,0.019948343149224446
3274.591,0.1565914428808739,0.019462936094453376
3276.5190000000002,0.15499344976777252,0.019805250169321553
3278.448,0.15340447863865947,0.01805354890030797
3280.3759999999997,0.15182617694934564,0.018455153867737106
3282.304,0.15025771841924396,0.024154107959452276
3284.2329999999997,0.14869829719189553,0.02512815139970348
3286.1609999999996,0.14714953008558496,0.022822162093068865
3288.09,0.1456098104954222,0.018460225151464282
3290.0190000000002,0.1440799442778662,0.020388847222798212
3291.947,0.14256071685992566,0.028207788067732498
3293.875,0.14105133260119374,0.026946850106572384
3295.804,0.13955101628540234,0.019002838471010808
3297.732,0.13806132345046151,0.020900024141626616
3299.6609999999996,0.13658070877185224,0.02264169983931774
3301.5890000000004,0.13511070736070252,0.023252331711080654
3303.518,0.13364979431927893,0.024267658675758863
3305.447,0.1321987346504585,0.0246143638328018
3307.375,0.13075827292768238,0.02819957987164745
3309.303,0.12932765436411486,0.02750186964511192
3311.232,0.12790614459705907,0.026044369137477208
3313.16,0.12649521745728265,0.03255804318436173
3315.0890000000004,0.12509340932741253,0.036362171856623604
3317.0170000000003,0.12370217361142721,0.03260208304615331
3318.946,0.12232006711874277,0.029814552298325747
3320.875,0.1209478139986615,0.032004586923963796
3322.803,0.11958611797104624,0.03406628994116501
3324.7309999999998,0.11823426510263957,0.03211171938048096
3326.66,0.11689156188432648,0.031161139590476505
3328.5879999999997,0.11555940043971091,0.02933575577752512
3330.5170000000003,0.11423639885857995,0.028742562489012524
3332.445,0.11292392883775548,0.031002121347468492
3334.3740000000003,0.11162062889381019,0.031916450857361056
3336.302,0.11032785029677683,0.03605503919787667
3338.2309999999998,0.10904425199001366,0.03561500571600451
3340.159,0.1077711648167714,0.03022177570185569
3342.0879999999997,0.10650726814719391,0.032540051346760634
3344.0159999999996,0.1052538723977392,0.03935366237544935
3345.945,0.10400967736535094,0.0376416122131773
3347.873,0.10277597303968733,0.036476490789207894
3349.802,0.10155147964448119,0.03987159996689815
3351.73,0.10033746674260868,0.03798817804665555
3353.659,0.09913267498458467,0.03477590123684582
3355.587,0.09793835350650326,0.03766659512004367
3357.5159999999996,0.09675326338566848,0.04346760751668688
3359.4440000000004,0.09557863333137817,0.04262189787712156
3361.373,0.09441324484772196,0.036526155445840924
3363.302,0.09325770973667602,0.038265320947604486
3365.23,0.09211261937075932,0.0396711228533273
3367.158,0.09097737216404411,0.03577736328014414
3369.087,0.08985138695476635,0.03455414879696361
3371.015,0.0887358311718458,0.0393364411424062
3372.9440000000004,0.08762954759974662,0.041763756377327876
3374.8720000000003,0.08653368324061717,0.04337824798186185
3376.801,0.08544710130570365,0.04463153153136945
3378.7290000000003,0.0843709283703653,0.04180367147586406
3380.658,0.08330404807263747,0.04060872190010345
3382.586,0.08224756656109022,0.042339348934821164
3384.515,0.08120038790054451,0.04292381703410353
3386.4429999999998,0.08016359781278837,0.038867296155200126
3388.3720000000003,0.07913612078943189,0.03792720485535783
3390.3,0.07811902212546329,0.04548865243943556
3392.2290000000003,0.07711124673928893,0.05015512636478636
3394.157,0.07611383949911499,0.04667919887371008
3396.086,0.07512576575012275,0.04641613681505552
3398.014,0.07414804993373991,0.047790162130285196
3399.9429999999998,0.07317967782193335,0.05074602288401531
3401.8709999999996,0.07222165342933806,0.05431395850887455
3403.8,0.07127298295471718,0.05547755873816085
3405.728,0.07033464998591299,0.058796195054976685
3407.657,0.06940568114847778,0.05694156146003593
3409.585,0.0684870396034647,0.05082238934739847
3411.514,0.06757777240321161,0.04848184876125394
3413.442,0.06667882228198962,0.05216335287702378
3415.3709999999996,0.06578925671892577,0.0544431469995339
3417.2990000000004,0.06490999802149133,0.05458570338341584
3419.228,0.0640401340956096,0.055109582826177395
3421.156,0.06318056682196982,0.05508007482198085
3423.085,0.062330404533273764,0.0555692250186941
3425.013,0.06149052868342153,0.05718040163041138
3426.942,0.0606600680319076,0.057255987046026746
3428.87,0.05983988360585002,0.056815599723988974
3430.7990000000004,0.059029124591521764,0.05743938732572218
3432.7270000000003,0.058228631589251734,0.059745786527753975
3434.656,0.0574375742121056,0.05628647695166045
3436.5840000000003,0.056656772633630226,0.058961106726124424
3438.513,0.05588541689366977,0.06219209760972033
3440.441,0.05512430673898194,0.062173519499922225
3442.37,0.054372652636207164,0.06128996007085963
3444.298,0.05363123390531044,0.056004608689223634
3446.2270000000003,0.052899281439721335,0.058213111095401615
3448.155,0.05217755413261216,0.06381776284509177
3450.0840000000003,0.05146530330420873,0.06982846897509587
3452.012,0.050763267420890656,0.0740176090731337
3453.941,0.050070718229672906,0.0692799492757441
3455.869,0.04938837377014593,0.06182152348294734
3457.798,0.04871552621611386,0.0637238391295214
3459.7259999999997,0.048052873180377986,0.06860261014946101
3461.655,0.04739972726352448,0.07022695897398146
3463.583,0.04675676565157971,0.06862206988347319
3465.512,0.04612332137191544,0.0720845489013775
3467.44,0.04550005118375822,0.079581726966798
3469.369,0.04488630854127962,0.08347218729991734
3471.297,0.04428272977691705,0.08343447159304196
3473.2259999999997,0.043688688771620576,0.08368567342870126
3475.1540000000005,0.04310480143104556,0.08624796295002701
3477.083,0.04253046206293476,0.08590841401171456
3479.011,0.041966266146154396,0.09025432517278098
3480.94,0.04141162841522572,0.0952452528317167
3482.868,0.04086712392223646,0.09537492542423776
3484.797,0.04033218782849346,0.09748671201074677
3486.725,0.03980737475929175,0.09760717755775605
3488.6540000000005,0.039292140302734424,0.0969956908288796
3490.5820000000003,0.03878701865732381,0.0961200198552925
3492.511,0.03829148583794861,0.09118289733112928
3494.4390000000003,0.037806055616329104,0.08882042093361209
3496.368,0.03733022443413958,0.09003365338790603
3498.296,0.03686448563631117,0.08721568490957532
3500.225,0.036408356091307326,0.08937028373535139
3502.153,0.03596230871727002,0.09935991117509113
3504.0820000000003,0.03552588080945185,0.10337535634718487
3506.01,0.03509952485920209,0.10271203591524447
3507.9390000000003,0.0346827985885696,0.1052277347168058
3509.867,0.03427613406211094,0.11277251345309214
3511.796,0.03387910942866412,0.11949336558356771
3513.724,0.033492136325993016,0.12188355389557737
3515.653,0.033114813329731874,0.12594473793887806
3517.5809999999997,0.03274753165085542,0.13361578700434862
3519.51,0.0323899102917764,0.1418674462469811
3521.438,0.03204232003669105,0.147354478733142
3523.367,0.03170440031479416,0.15374153524122747
3525.295,0.03137650148349991,0.15888805432834063
3527.224,0.03105828339878869,0.1610627063265211
3529.152,0.03075007599128554,0.15456620275338517
3531.0809999999997,0.030451559543756446,0.1448276743976713
3533.009,0.0301630435600444,0.13902022337222686
3534.938,0.02988422874970098,0.13241918915761763
3536.866,0.029615404189780037,0.12877000155565987
3538.795,0.029356291016622293,0.12467809774412464
3540.723,0.0291071578804889,0.12125839744208111
3542.652,0.02886774634451683,0.12085686398609097
3544.58,0.028638304632174538,0.11928299263489794
3546.509,0.028418594733388147,0.11630566611794402
3548.437,0.028208844444836956,0.11121521370851495
3550.366,0.028008836183232688,0.10154138398871204
3552.2940000000003,0.0278187773184726,0.0983645595096534
3554.223,0.02763847069405756,0.10769388409730363
3556.151,0.02746810325308502,0.12467700054226016
3558.08,0.027307498265852104,0.14361862181522733
3560.008,0.027156822248674217,0.16444623918978252
3561.937,0.027015918898623426,0.18441065550551494
3563.865,0.02688493430523664,0.20130266617005566
3565.7940000000003,0.026763732592371525,0.2144472130985493
3567.722,0.02665243942277229,0.23029555806097735
3569.651,0.02655093934709285,0.2529136584022611
3571.579,0.02645933760128827,0.2729126481399575
3573.508,0.026377539162790953,0.26583047090221257
3575.4359999999997,0.02630562884077392,0.22366536437932805
3577.365,0.02624353203946228,0.17404653575951778
3579.2929999999997,0.02619131314123635,0.14262255419643122
3581.222,0.02614891797711394,0.1151127022088092
3583.15,0.026116390502675557,0.09522071720683778
3585.079,0.02609369697573527,0.08789001729000923
3587.007,0.026080860925091542,0.0863525632728539
3588.9359999999997,0.02607786903533338,0.08451554677510886
3590.864,0.026084724408480753,0.09349485202263752
3592.7929999999997,0.026101434155911818,0.10682056206971247
3594.7209999999995,0.02612798095284319,0.11971566201912909
3596.65,0.026164392337456377,0.13468938553351606
3598.578,0.0262106305581824,0.14029877043433903
3600.507,0.026266743579981267,0.12574485913197808
3602.435,0.026332673224498393,0.08979719327441904
3604.364,0.026408487883482934,0.06320918178870594
3606.292,0.02649410895178761,0.05543501665106465
3608.2209999999995,0.026589625247957827,0.05360608314653437
3610.1490000000003,0.026694937740057156,0.05012515032872056
3612.078,0.026810155673409497,0.047177053385093703
3614.006,0.02693515958929993,0.046292281523442114
3615.935,0.027070079159834393,0.04419888009088213
3617.863,0.027214774499515926,0.03789391355528249
3619.792,0.027369395707236066,0.03384120050440842
3621.72,0.027533782470705148,0.03602426603701847
3623.6490000000003,0.027708105315614517,0.03641085742989514
3625.577,0.0278921835028747,0.04057954362370708
3627.506,0.02808620798496264,0.04708783269442485
3629.434,0.02828997759601748,0.03937165656907693
3631.363,0.028503703715291095,0.02850370524535828
3633.2909999999997,0.028727164750133483,0.02946393051791718
3635.22,0.028960592506592775,0.030530565667727494
3637.1479999999997,0.029203744965226264,0.029433285858846414
3639.077,0.029456874358871232,0.02414346114123367
3641.005,0.029719718241295823,0.02083665276590363
3642.934,0.029992549272122915,0.022791053160252872
3644.862,0.030275084578338607,0.02784751275163977
3646.7909999999997,0.030567617246354928,0.03201188928890808
3648.719,0.030869843976354616,0.030134559462521526
3650.6479999999997,0.031182078281556613,0.021664779899753572
3652.5759999999996,0.031503996435350956,0.014828218564300055
3654.505,0.03183593237773508,0.014227533058765118
3656.433,0.03217754195532052,0.013963857359700516
3658.362,0.03252917953489032,0.010789475668856241
3660.29,0.032890480536266864,0.011034171731853615
3662.219,0.033261819753018784,0.010575113216856558
3664.147,0.03364281217818643,0.009330208021715691
3666.0759999999996,0.03403385303212403,0.010813075045041476
3668.0040000000004,0.034434536881079225,0.016477953508240883
3669.933,0.0348452793722025,0.01921636877206323
3671.861,0.03526565464495235,0.00826758083418433
3673.79,0.035696098773257745,0.009619131533585623
3675.718,0.0361361654697987,0.019300334145774478
3677.647,0.03658631123528977,0.014753592308430541
3679.575,0.03704606935561827,0.004221841457270781
3681.5040000000004,0.03751591675829502,-0.00023172021114969965
3683.4320000000002,0.037995366302414624,0.006212713658443558
3685.361,0.03848491534227705,0.009906431550852801
3687.289,0.038984056310187754,0.010976802010914
3689.218,0.0394933069872323,0.013242766263624528
3691.1459999999997,0.04001213937893411,0.009618111547186281
3693.075,0.04054109169316433,0.00045597268091901455
3695.0029999999997,0.04107961550865369,-0.0033683552863843502
3696.9320000000002,0.04162826946006959,-0.0030090620790668154
3698.86,0.0421864846993536,-0.0035672773183508255
