baseline wavenumber (cm-1),baseline absorbance (cm-1),baseline-subtracted absorbance (cm-1)
3199.379,0.172469321743,2.13162820728e-14
3201.308,0.17056842436,0.000921518023899
3203.236,0.16867835812,0.00148680917001
3205.165,0.166797162374,0.00125312570833
3207.093,0.164926787558,0.00111157289856
3209.021,0.163066255902,0.00155408171074
3210.95,0.161214610058,0.00191032676638
3212.878,0.159373769825,0.00273317447924
3214.807,0.157541825618,0.00308321228766
3216.736,0.155719734784,0.00353059373146
3218.664,0.153908434239,0.00327952694548
3220.593,0.152106045042,0.00303147643773
3222.521,0.150314435921,0.0031106626331
3224.449,0.14853266996,0.00417737754836
3226.378,0.146759830665,0.00434241334626
3228.306,0.144997756127,0.00511818443704
3230.235,0.143244618469,0.00512099358008
3232.164,0.141501334183,0.00556310531938
3234.092,0.139768799334,0.00658710888392
3236.021,0.138045216686,0.00817680898907
3237.949,0.13633237326,0.00837514720887
3239.877,0.134629372994,0.00832215839197
3241.806,0.132935340247,0.00753529555583
3243.734,0.131252031405,0.00867867717706
3245.663,0.129577700295,0.0102491975112
3247.592,0.127913222559,0.0111200332789
3249.52,0.126259453404,0.0110527370333
3251.448,0.12461552741,0.0115534809803
3253.377,0.122980599574,0.0114948881441
3255.305,0.121356365003,0.0119439988903
3257.234,0.119741138805,0.0114522302433
3259.162,0.118136595658,0.0118113473318
3261.091,0.116541071097,0.0113502156709
3263.02,0.114955399909,0.0119108186289
3264.948,0.11338039645,0.0130308539286
3266.876,0.111815236151,0.0143290072537
3268.805,0.110259114864,0.0140926995498
3270.733,0.108713645988,0.0148408875201
3272.662,0.107177226339,0.0153397048241
3274.591,0.105650660063,0.0159413241685
3276.519,0.104134730875,0.0157814725009
3278.448,0.102627866236,0.016737998517
3280.376,0.101131628472,0.0167822500279
3282.304,0.0996452338675,0.017068098792
3284.233,0.0981679191299,0.0165686622913
3286.161,0.0967012159491,0.0176528728005
3288.09,0.0952436028487,0.0181943836063
3290.019,0.093795843121,0.0181421938749
3291.947,0.0923586796285,0.0178526819403
3293.875,0.0909313592953,0.0192361328709
3295.804,0.0895131494693,0.0206352382796
3297.732,0.0881055205599,0.0208788117963
3299.661,0.086707012371,0.0206199359763
3301.589,0.0853190748854,0.0220266746345
3303.518,0.0839402683338,0.0226831522667
3305.447,0.0825713151547,0.0231175052233
3307.375,0.0812129173575,0.0231830697041
3309.303,0.0798643627194,0.0242177660585
3311.232,0.0785249594421,0.0240892121944
3313.16,0.0771960962279,0.0242157606406
3315.089,0.0758763945878,0.0232290840335
3317.017,0.0745672227973,0.0240710567943
3318.946,0.0732672227944,0.0243498296669
3320.875,0.0719770761641,0.0241461422732
3322.803,0.070697444062,0.0243215592737
3324.731,0.0694276551191,0.0258118576677
3326.66,0.0681670583906,0.0261581210292
3328.588,0.0669169608715,0.0272856571413
3330.517,0.0656760657801,0.02743512395
3332.445,0.0644456596848,0.0271471837398
3334.374,0.0632244662306,0.0265328874538
3336.302,0.0620137515591,0.0266185136789
3338.231,0.0608122597421,0.0266033876853
3340.159,0.0596212364944,0.0271092800324
3342.088,0.0584394463146,0.0276398016385
3344.016,0.0572681144907,0.0287179362523
3345.945,0.0561060259481,0.0280340731119
3347.873,0.0549543855479,0.0289036959238
3349.802,0.0538119986425,0.0297889818488
3351.73,0.0526800496661,0.0301697431166
3353.659,0.0515573643979,0.0297394616407
3355.587,0.0504451068453,0.0301028058202
3357.516,0.0493421232143,0.0305630622704
3359.444,0.0482495570855,0.0313618348078
3361.373,0.0471662750916,0.0318705691417
3363.302,0.0460928464704,0.0319842787697
3365.23,0.0450298200299,0.0314186789087
3367.158,0.0439766367487,0.0330280635444
3369.087,0.0429327580292,0.0327385752367
3371.015,0.0418992661718,0.0317098008452
3372.944,0.0408750890895,0.0310033603191
3374.872,0.0398612886559,0.0314028880347
3376.801,0.0388568132108,0.0322434597095
3378.729,0.0378627042009,0.032878678595
3380.658,0.036877930393,0.0329267800083
3382.586,0.035903512807,0.0334080711413
3384.515,0.0349384406362,0.032920247325
3386.443,0.033983714474,0.0333680493995
3388.372,0.0330383439404,0.0327022807437
3390.3,0.0321033092019,0.0341031499106
3392.229,0.0311776403055,0.0353202875222
3394.157,0.0302622969909,0.0361886784463
3396.086,0.0293563297317,0.0364610158662
3398.014,0.0284606778408,0.0369025587912
3399.943,0.0275744122188,0.0366777357647
3401.871,0.0266984517517,0.0370036103124
3403.8,0.0258318877668,0.0368836686872
3405.728,0.0249756187235,0.0381365312815
3407.657,0.0241287563759,0.0386952606058
3409.585,0.0232921787564,0.039369349597
3411.514,0.0224650180459,0.0380915876349
3413.442,0.0216481318502,0.0376168029522
3415.371,0.0208406727769,0.0368482992235
3417.299,0.020043478005,0.0367323230665
3419.228,0.0192557205689,0.0365018858194
3421.156,0.0184782172208,0.0371888200783
3423.085,0.0177101614219,0.0364198294808
3425.013,0.0169523494975,0.0363077333894
3426.942,0.0162039953358,0.0364441397092
3428.87,0.0154658748352,0.037584463788
3430.799,0.0147372223107,0.037715522054
3432.727,0.0140187932339,0.0376482440652
3434.656,0.0133098423466,0.0373025603624
3436.584,0.0126111046936,0.038054618545
3438.513,0.0119218554434,0.0369038293842
3440.441,0.0112428092143,0.0363093994181
3442.37,0.0105732616013,0.0374488752632
3444.298,0.00991390679588,0.0384156696723
3446.227,0.00926406082008,0.0376766042967
3448.155,0.00862439743848,0.038856801389
3450.084,0.00799425309986,0.0394322605967
3452.012,0.00737428114206,0.0395737629295
3453.941,0.00676383844062,0.0375386481661
3455.869,0.0061635579066,0.0379058851339
3457.798,0.00557281684235,0.0384764604244
3459.726,0.00499222773213,0.0399081563778
3461.655,0.00442118830506,0.0396847451833
3463.583,0.00386029061862,0.0410057257566
3465.512,0.00330895282874,0.0423489871288
3467.44,0.0027677465661,0.0440690066938
3469.369,0.0022361104134,0.0437017749601
3471.297,0.00171459557455,0.0446950374993
3473.226,0.00120266105904,0.0453857347764
3475.154,0.000700837643972,0.0458193786706
3477.083,0.000208604765646,0.0450834198983
3479.011,-0.00027352722563,0.0468916410435
3480.94,-0.00074605846677,0.0487252862036
3482.868,-0.00120849903425,0.0509852603807
3484.797,-0.00166132863821,0.0517149018718
3486.725,-0.0021040777819,0.0528289337407
3488.654,-0.00253720574868,0.0525464041718
3490.582,-0.00296026346858,0.0522744755377
3492.511,-0.00337368979816,0.0520198032117
3494.439,-0.00377705609428,0.053224342054
3496.368,-0.00417078078668,0.053008848107
3498.296,-0.004554455659,0.0530711341185
3500.225,-0.00492847871422,0.0536040068654
3502.153,-0.00529246216275,0.0572502100653
3504.082,-0.00564678358078,0.0572606014318
3506.01,-0.00599107560552,0.0575588002593
3507.939,-0.00632569538637,0.0610645006022
3509.867,-0.00665029598732,0.0663230443953
3511.796,-0.00696521413099,0.0667632026077
3513.724,-0.00727012330814,0.0656720236417
3515.653,-0.00756533981462,0.0657102402493
3517.581,-0.00785055756799,0.0677869772587
3519.51,-0.00812607243729,0.0692856802408
3521.438,-0.00839159876686,0.0725039509351
3523.367,-0.00864741199897,0.0756601482771
3525.295,-0.00889324690476,0.0774835127493
3527.224,-0.00912935849968,0.0759005603596
3529.152,-0.00935550198168,0.0756976125649
3531.081,-0.00957191193942,0.0737490573958
3533.009,-0.00977836399763,0.0723022697896
3534.938,-0.00997507231818,0.070614261644
3536.866,-0.0101618329526,0.0684579008794
3538.795,-0.010338839636,0.0664558415565
3540.723,-0.0105059088466,0.0674003796846
3542.652,-0.0106632138928,0.0673377312283
3544.58,-0.0108105916796,0.067319486858
3546.509,-0.0109481950886,0.0641257448713
3548.437,-0.0110758814517,0.0621390068939
3550.366,-0.0111937832235,0.0632098551936
3552.294,-0.0113017781627,0.0669993420968
3554.223,-0.0113999782974,0.0703177989787
3556.151,-0.0114882818128,0.0753900810648
3558.08,-0.0115667803103,0.0818647182462
3560.008,-0.0116353924019,0.0923573675359
3561.937,-0.0116941892622,0.102634450053
3563.865,-0.0117431099301,0.109666944965
3565.794,-0.0117822051532,0.111891676497
3567.722,-0.0118114343973,0.111767767158
3569.651,-0.0118308279831,0.110534962219
3571.579,-0.0118403658034,0.110442710896
3573.508,-0.0118400577522,0.106528524345
3575.436,-0.0118299041487,0.0967255879655
3577.365,-0.0118098944602,0.0826799540983
3579.293,-0.0117800494329,0.0732842443182
3581.222,-0.0117403381072,0.0678637081669
3583.15,-0.0116908016562,0.0656263116127
3585.079,-0.0116313886933,0.0652740653334
3587.007,-0.0115621608185,0.0702320284016
3588.936,-0.0114830462184,0.0754281083836
3590.864,-0.0113941269198,0.0803719395145
3592.793,-0.0112953106826,0.0918440320007
3594.721,-0.0111866999601,0.11229915321
3596.65,-0.0110681820857,0.13005817501
3598.578,-0.0109398799395,0.134571387066
3600.507,-0.0108016604279,0.117331580573
3602.435,-0.0106536668579,0.0876357754195
3604.364,-0.0104957457091,0.0644691612555
3606.292,-0.0103280607153,0.0538917421062
3608.221,-0.0101504379293,0.0493204065941
3610.149,-0.00996306151174,0.0455236599146
3612.078,-0.0097657370886,0.0417096873565
3614.006,-0.00955866924721,0.0413923900599
3615.935,-0.00934164318688,0.0387600703576
3617.863,-0.00911488392169,0.038207575724
3619.792,-0.00887815622418,0.0369216718413
3621.72,-0.00863170553521,0.0341378209704
3623.649,-0.00837527620052,0.0320101695595
3625.577,-0.00810913408775,0.032103877846
3627.506,-0.00783300311587,0.0307931769762
3629.434,-0.00754716957931,0.0307843069492
3631.363,-0.00725133697025,0.0283738478365
3633.291,-0.0069458120099,0.0290048436484
3635.22,-0.00663027776366,0.0283158129906
3637.148,-0.00630506137951,0.0290054555976
3639.077,-0.00596982549608,0.029574899791
3641.005,-0.00562491768815,0.0284612666217
3642.934,-0.00526998016754,0.0264890239359
3644.862,-0.00490538093582,0.0261441356108
3646.791,-0.00453074177802,0.0276197946437
3648.719,-0.0041464511225,0.0305056950323
3650.648,-0.00375211032752,0.0267577708956
3652.576,-0.00334812824822,0.0221973145416
3654.505,-0.00293408581604,0.0201406965509
3656.433,-0.00251041231295,0.0205843029427
3658.362,-0.0020766682436,0.0177852500691
3660.29,-0.00163330331672,0.0167909905703
3662.219,-0.00117985761018,0.0163567503626
3664.147,-0.0007168012595,0.0169439315536
3666.076,-0.000243653915774,0.015045534033
3668.004,0.000239093858692,0.0146209081629
3669.933,0.000731942839597,0.0186474163032
3671.861,0.00123438203785,0.0190830141008
3673.79,0.00174693265595,0.01636334734
3675.718,0.00226906327799,0.0171411257445
3677.647,0.00280131553327,0.0132959249398
3679.575,0.00334313757911,0.0105085757536
3681.504,0.00389509147157,0.00794004448315
3683.432,0.0044566049412,0.00766610808821
3685.361,0.00502826047084,0.00637576257575
3687.289,0.00560946536426,0.00533766897315
3689.218,0.0062008225311,0.00610232110582
3691.146,0.0068017188483,0.0071227732168
3693.075,0.00741277765232,0.00380828774746
3695.003,0.00803336539332,0.00297593411138
3696.932,0.00866412583452,0.00130150643072
3698.86,0.00930440499931,0.000661227265925
