baseline wavenumber (cm-1),baseline absorbance (cm-1),baseline-subtracted absorbance (cm-1)
3199.379,0.147704942889,1.82076576039e-14
3201.308,0.145903109645,0.00286116812716
3203.236,0.144112056189,0.00421959245112
3205.165,0.142329924583,0.00685333630891
3207.093,0.140558562551,0.00652017999448
3209.021,0.138797043678,0.00521235690819
3210.95,0.137044461973,0.0050934132922
3212.878,0.135302634524,0.00823673674835
3214.807,0.133569754457,0.0103097563087
3216.736,0.131846727761,0.00863947460396
3218.664,0.130134440001,0.00825482513611
3220.593,0.128431114943,0.0103998766673
3222.521,0.126738518606,0.0115213621176
3224.449,0.125055765429,0.0118142436687
3226.378,0.123381990272,0.00835964522739
3228.306,0.121718928519,0.00626297787972
3230.235,0.120064855,0.00813589300391
3232.164,0.118420634853,0.0102268937022
3234.092,0.116787112788,0.0102355294843
3236.021,0.115162594279,0.0111873501264
3237.949,0.113548763637,0.01372355012
3239.877,0.111944776155,0.0164313483777
3241.806,0.110349807547,0.0133103562048
3243.734,0.108765511489,0.0119167891278
3245.663,0.107190244519,0.0135451239238
3247.592,0.105624830921,0.0168723893359
3249.52,0.104070074551,0.0167325131376
3251.448,0.10252516134,0.0169749902826
3253.377,0.100989297644,0.0188039905398
3255.305,0.0994640758566,0.0177218131558
3257.234,0.0979479137979,0.0170813998582
3259.162,0.0964423834345,0.0190195593533
3261.091,0.094945923013,0.019246940628
3263.02,0.093459315964,0.0199941359717
3264.948,0.091983325289,0.0213270962211
3266.876,0.0905171777732,0.0221003295552
3268.805,0.089060120626,0.0243523932727
3270.733,0.087613664534,0.0244964132988
3272.662,0.086176309024,0.0205713913702
3274.591,0.0847488068867,0.0186808908794
3276.519,0.083331890483,0.0191956542456
3278.448,0.0819240899828,0.0220079832002
3280.376,0.080526865003,0.0232485317422
3282.304,0.0791394831823,0.0234476996743
3284.233,0.0777612325839,0.0234517462901
3286.161,0.076393542187,0.0219522578736
3288.09,0.0750349932258,0.0195525939571
3290.019,0.0736862976371,0.0221061818939
3291.947,0.0723481469286,0.0218335977393
3293.875,0.0710198393794,0.0241327937956
3295.804,0.0697006936925,0.0273264972506
3297.732,0.068392077567,0.027898734118
3299.661,0.0670926335173,0.0285355884578
3301.589,0.0658037088156,0.0271574758604
3303.518,0.0645239664031,0.0228499343348
3305.447,0.0632540773632,0.0225055506566
3307.375,0.0619946923499,0.0261989799437
3309.303,0.0607451504958,0.0284365941722
3311.232,0.0595048113576,0.0274450521822
3313.16,0.0582749609273,0.0252229669004
3315.089,0.0570543234264,0.0227551378089
3317.017,0.0558441644198,0.0236372871116
3318.946,0.0546432285561,0.0246279733038
3320.875,0.0534521460649,0.0253146587466
3322.803,0.0522715267467,0.0238322840286
3324.731,0.0511007505878,0.0246022717512
3326.66,0.0499392179984,0.0272360574489
3328.588,0.0487881332632,0.028167795171
3330.517,0.047646302311,0.027074712548
3332.445,0.0465149089996,0.0284618422386
3334.374,0.0453927796846,0.0265141241868
3336.302,0.044281077797,0.0253125742802
3338.231,0.0431786501192,0.0279772176661
3340.159,0.0420866396554,0.0272841275537
3342.088,0.0410039136147,0.0236387630253
3344.016,0.0399315945747,0.0264390715528
3345.945,0.0388685701713,0.0290825063475
3347.873,0.0378159425551,0.0298778813608
3349.802,0.0367726197888,0.0280631226554
3351.73,0.0357396835964,0.0279730425737
3353.659,0.0347160624672,0.0293762250087
3355.587,0.0337028176986,0.0310161755289
3357.516,0.0326988982067,0.029928717279
3359.444,0.0317053448619,0.0288430226707
3361.373,0.0307211270071,0.0296291206427
3363.302,0.029746762525,0.0306050013485
3365.23,0.0287827488685,0.0324160785852
3367.158,0.0278285783713,0.030797723054
3369.087,0.0268837637909,0.0300120211075
3371.015,0.0259492847174,0.0335099288679
3372.944,0.0250241717743,0.0312989860141
3374.872,0.0241093841246,0.029240459199
3376.801,0.0232039728186,0.0290577273735
3378.729,0.0223088765927,0.0305431399847
3380.658,0.0214231669239,0.0307081380392
3382.586,0.0205477621218,0.034229858418
3384.515,0.0196817540902,0.0353273432514
3386.443,0.0188260407119,0.0323631839925
3388.372,0.0179797343174,0.0290904162941
3390.3,0.0171437123629,0.030910972768
3392.229,0.0163171076057,0.0306256802241
3394.157,0.0155007770749,0.0325599729503
3396.086,0.0146938739549,0.0319684125103
3398.014,0.0138972348479,0.032468377201
3399.943,0.013110033365,0.033552758508
3401.871,0.0123330856819,0.0350231257807
3403.8,0.0115655858362,0.0372365975258
3405.728,0.0108083295768,0.0347370055086
3407.657,0.0100605313683,0.0331574005027
3409.585,0.00932296653277,0.036105619336
3411.514,0.00859486996143,0.0359578440788
3413.442,0.00787699654967,0.0354162410931
3415.371,0.00716860161551,0.0366350979701
3417.299,0.00647041962754,0.0363639076746
3419.228,0.00578172633057,0.0327632044286
3421.156,0.00510323576638,0.0302722822767
3423.085,0.0044342441066,0.0264497142478
3425.013,0.00377544496621,0.0268669284291
3426.942,0.00312615494361,0.0287453703773
3428.87,0.00248704722701,0.0290069384194
3430.799,0.00185745884159,0.0303900899303
3432.727,0.00123804254878,0.0329533048686
3434.656,0.000628155800548,0.0322860259441
3436.584,2.84309315255e-05,0.0292432763362
3438.513,-0.000561754179518,0.0267474410288
3440.441,-0.00114178762475,0.0280092696828
3442.37,-0.00171227109861,0.0268401392882
3444.298,-0.00227261312005,0.0251413081569
3446.227,-0.00282339495673,0.0244735516332
3448.155,-0.00336404555438,0.0293409989558
3450.084,-0.00389512575387,0.0309359627093
3452.012,-0.00441608492773,0.0288212198716
3453.941,-0.00492746349003,0.0261101178921
3455.869,-0.0054287312401,0.0296493923136
3457.798,-0.00592040816522,0.0338259979762
3459.726,-0.0064019844915,0.0320569930834
3461.655,-0.00687395977944,0.0286150898714
3463.583,-0.00733584468193,0.0306715365853
3465.512,-0.00778811833268,0.0316934048989
3467.44,-0.00823031181137,0.0331939224452
3469.369,-0.00866288382494,0.0347586080744
3471.297,-0.00908538587985,0.0368807967764
3473.226,-0.00949825625623,0.0364385170467
3475.154,-0.00990106688735,0.0355540538478
3477.083,-0.0102942356265,0.0391050109222
3479.011,-0.0106773548339,0.0403917993906
3480.94,-0.0110508219359,0.0376640838382
3482.868,-0.0114142497194,0.0380431792656
3484.797,-0.0117680151842,0.041073079371
3486.725,-0.012111751544,0.0407522043894
3488.654,-0.0124458153716,0.0395296119955
3490.582,-0.0127698603076,0.0428320254749
3492.511,-0.013084222498,0.0458012951757
3494.439,-0.0133885760102,0.0454107128747
3496.368,-0.0136832365635,0.0440107408595
3498.296,-0.0139678986519,0.0473809179584
3500.225,-0.014242857568,0.0473020913696
3502.153,-0.0145078282325,0.0439453092797
3504.082,-0.0147630855114,0.0465234211023
3506.01,-0.0150083647522,0.0542947288481
3507.939,-0.0152439203939,0.0567202167651
3509.867,-0.0154695082109,0.0584771904105
3511.796,-0.0156853622155,0.059712452077
3513.724,-0.0158912586087,0.0585916528268
3515.653,-0.016087410976,0.0566327460615
3517.581,-0.0162736159455,0.0581102681238
3519.51,-0.0164500666756,0.0616926624504
3521.438,-0.0166165802213,0.0632530908854
3523.367,-0.0167733293142,0.0664999036597
3525.295,-0.0169201514361,0.0677373959524
3527.224,-0.0170571988919,0.063046282082
3529.152,-0.0171843295899,0.0647123797264
3531.081,-0.0173016754085,0.0648145633091
3533.009,-0.0174091146828,0.0652318176041
3534.938,-0.0175067588642,0.0629136121949
3536.866,-0.0175945067147,0.062552557862
3538.795,-0.0176724492589,0.062211011879
3540.723,-0.0177405056856,0.0626510484937
3542.652,-0.0177987465927,0.0603854240414
3544.58,-0.0178471115955,0.0520950646937
3546.509,-0.0178856508654,0.0485543054697
3548.437,-0.0179143244445,0.0514365118498
3550.366,-0.0179331620772,0.0493412283867
3552.294,-0.0179421442325,0.0510423160712
3554.223,-0.017941280228,0.0608761836951
3556.151,-0.0179305709595,0.0677208266959
3558.08,-0.0179100053178,0.071845616356
3560.008,-0.0178796046256,0.079187600178
3561.937,-0.0178393373467,0.0902223354262
3563.865,-0.0177892452306,0.0950438697126
3565.794,-0.0177292763146,0.0893566896371
3567.722,-0.0176594927747,0.0887547116163
3569.651,-0.0175798222215,0.0949638311167
3571.579,-0.0174903472578,0.0994159512202
3573.508,-0.0173909750674,0.095919227367
3575.436,-0.01728180868,0.0815777755252
3577.365,-0.0171627348524,0.0680664041135
3579.293,-0.0170338770412,0.0649424992993
3581.222,-0.0168951015764,0.0623277307081
3583.15,-0.0167465523413,0.0566682141224
3585.079,-0.0165880752394,0.0514339258408
3587.007,-0.0164198345806,0.0525054506727
3588.936,-0.0162416558414,0.0659116245061
3590.864,-0.0160537237588,0.0748887586319
3592.793,-0.0158558433825,0.0870531546126
3594.721,-0.0156482198761,0.107720392119
3596.65,-0.0154306378625,0.12707574046
3598.578,-0.0152033229324,0.128667893841
3600.507,-0.0149660392816,0.106881029679
3602.435,-0.0147190329277,0.0800121694889
3604.364,-0.0144620476398,0.0600781398262
3606.292,-0.014195349862,0.0433068428368
3608.221,-0.0139186629369,0.033843862573
3610.149,-0.0136322737354,0.0327402288552
3612.078,-0.0133358851731,0.0290621562739
3614.006,-0.0130298045478,0.0287237295452
3615.935,-0.0127137143483,0.0257936698724
3617.863,-0.0123879422992,0.0204021948009
3619.792,-0.0120521504625,0.0192592666053
3621.72,-0.0117066869896,0.0267637980783
3623.649,-0.0113511935158,0.0275020072224
3625.577,-0.0109860386191,0.0241468594014
3627.506,-0.0106108435081,0.0195681870843
3629.434,-0.0102259971876,0.0202270080033
3631.363,-0.00983110043937,0.0217759099006
3633.291,-0.00942656269507,0.0182722111334
3635.22,-0.00901196430969,0.0197988843542
3637.148,-0.0085877351416,0.0245217288745
3639.077,-0.00815343511904,0.0245827285588
3641.005,-0.00770951452716,0.0234241612471
3642.934,-0.00725551286742,0.0221903152529
3644.862,-0.00679190085175,0.0172563706789
3646.791,-0.00631819755482,0.00801232471544
3648.719,-0.00583489411536,0.00981346482192
3650.648,-0.00534148918125,0.014233635143
3652.576,-0.00483849431799,0.0177263948537
3654.505,-0.0043253877467,0.0154039281288
3656.433,-0.00380270145966,0.015304268224
3658.362,-0.00326989325118,0.0174683163786
3660.29,-0.00272751554034,0.0201089973962
3662.219,-0.00217500569467,0.0214310453187
3664.147,-0.00161293656005,0.0209559063367
3666.076,-0.0010407250772,0.0156020310511
3668.004,-0.000458964518785,0.00833574608151
3669.933,0.000132948601252,0.0078054927209
3671.861,0.000734400583458,0.0116602218769
3673.79,0.00134601534068,0.00143524413572
3675.718,0.00196715874667,-0.00196715874667
3677.647,0.00259847514108,0.00386518603349
3679.575,0.00323930997087,0.00508677918308
3681.504,0.00389032800246,0.00626129435679
3683.432,0.00455085425603,0.00707453743506
3685.361,0.00522157392481,0.00497654595794
3687.289,0.00590179160217,-0.00247108302035
3689.218,0.00659221290813,-0.00649568000608
3691.146,0.00729212200929,-0.000520162037596
3693.075,0.00800224495244,0.00497763981457
3695.003,0.00872184547739,0.00410692233824
3696.932,0.00945167005771,0.00481801557859
3698.86,0.0101909620065,0.00407872362986
