baseline wavenumber (cm-1),baseline absorbance (cm-1),baseline-subtracted absorbance (cm-1)
3199.379,0.171833821894,1.87627691162e-14
3201.308,0.169975417321,-0.000678742904783
3203.236,0.168127821863,0.00021767495312
3205.165,0.166289118927,0.00156360522161
3207.093,0.164461214892,0.00121926625594
3209.021,0.162643154017,0.00170456659341
3210.95,0.160834000983,0.0015638560878
3212.878,0.159035631531,0.00101207897096
3214.807,0.157246180134,0.00162291922885
3216.736,0.15546658211,0.00340908755556
3218.664,0.153697752347,0.00322805377875
3220.593,0.15193785596,0.00207730627642
3222.521,0.15018871762,0.00149449273052
3224.449,0.14844942244,0.00250600058621
3226.378,0.146719075955,0.00368696872341
3228.306,0.144999472198,0.0029563551543
3230.235,0.14328882735,0.0028237775221
3232.164,0.141588035874,0.00439164672957
3234.092,0.139897971806,0.00508555189724
3236.021,0.138216881968,0.00581849658265
3237.949,0.136546509324,0.00547229184882
3239.877,0.134885979839,0.00627211174108
3241.806,0.133234439902,0.00554318063774
3243.734,0.131593601841,0.00614742716948
3245.663,0.129961763541,0.00649300245483
3247.592,0.128339778614,0.00561928334868
3249.52,0.126728480242,0.00654625947336
3251.448,0.125127025028,0.0082801315473
3253.377,0.123534590003,0.00814103922996
3255.305,0.121952826213,0.008847436599
3257.234,0.120380092825,0.010085589981
3259.162,0.118818020459,0.0102805340744
3261.091,0.117264988708,0.00876725631351
3263.02,0.11572181033,0.0123694663303
3264.948,0.114189277652,0.015021477427
3266.876,0.112666588134,0.0145917763661
3268.805,0.111152959658,0.0128819134851
3270.733,0.109649961563,0.0138345224156
3272.662,0.108156034724,0.0141543867865
3274.591,0.106671961257,0.0117159898196
3276.519,0.105198502851,0.0101923795914
3278.448,0.103734131021,0.013918451613
3280.376,0.102280364039,0.0155642735838
3282.304,0.100836440216,0.0136507729654
3284.233,0.0994016182878,0.011719578518
3286.161,0.0979773858884,0.0142541919949
3288.09,0.0965622655978,0.0154969682038
3290.019,0.0951569986799,0.0151868808309
3291.947,0.0937623059688,0.0161585471596
3293.875,0.092377456417,0.0176586297045
3295.804,0.0910017394008,0.0179376116555
3297.732,0.0896365812728,0.0198885374981
3299.661,0.0882805658937,0.0191016235331
3301.589,0.0869350991895,0.0171088712947
3303.518,0.0855987854477,0.0170158915967
3305.447,0.0842723250784,0.0205469410694
3307.375,0.0829563980626,0.0201182001382
3309.303,0.0816503142059,0.019452637376
3311.232,0.0803534037384,0.0188818130816
3313.16,0.0790670113055,0.0191191809516
3315.089,0.0777898024753,0.0205074784304
3317.017,0.0765231014662,0.0223635355499
3318.946,0.0752655942731,0.0210940034223
3320.875,0.0740179404526,0.021346559699
3322.803,0.0727807791319,0.0241951634538
3324.731,0.0715534609704,0.0246202982533
3326.66,0.0703353570516,0.0239672811774
3328.588,0.0691277303139,0.0234602611952
3330.517,0.0679293280324,0.0226266206182
3332.445,0.0667413927185,0.0221324069379
3334.374,0.0655626920741,0.0243078729719
3336.302,0.064394448184,0.0282254345614
3338.231,0.0632354491768,0.027918649681
3340.159,0.0620868967105,0.0268331983062
3342.088,0.0609475993405,0.0252468310649
3344.016,0.0598187382979,0.0254535754593
3345.945,0.0586991425651,0.0270183849796
3347.873,0.0575899729463,0.0273461940404
3349.802,0.0564900788507,0.02710701
3351.73,0.0554006006558,0.0269750690097
3353.659,0.0543204081973,0.0252921966748
3355.587,0.0532506214261,0.0238745681018
3357.516,0.0521901306049,0.0253663234535
3359.444,0.0511400352575,0.0279695371674
3361.373,0.0500992460734,0.0288234770641
3363.302,0.049068310262,0.0290404029696
3365.23,0.048047754603,0.0292779807655
3367.158,0.0470370421031,0.0288055233472
3369.087,0.0460356561935,0.0273239415019
3371.015,0.0450446351174,0.0278985064978
3372.944,0.0440629508449,0.0272220486497
3374.872,0.0430916211927,0.0264125231518
3376.801,0.0421296385574,0.0276023941931
3378.729,0.0411780003289,0.030093909102
3380.658,0.0402357193308,0.0273981126716
3382.586,0.0393037725262,0.0274468592337
3384.515,0.0383811931652,0.0293962757522
3386.443,0.0374689377843,0.0305311632972
3388.372,0.0365660600606,0.0310752014375
3390.3,0.0356734961035,0.030550702825
3392.229,0.0347903200169,0.0285736241861
3394.157,0.0339174474836,0.0289687346654
3396.086,0.0330539730342,0.0306120029084
3398.014,0.0322007919248,0.0311743723328
3399.943,0.0313570191125,0.0313090579116
3401.871,0.0305235294268,0.0324850119661
3403.8,0.0296994582518,0.0304609076635
3405.728,0.0288856599899,0.0302429663115
3407.657,0.0280812904521,0.0328977856624
3409.585,0.0272871836139,0.0336945711622
3411.514,0.0265025157133,0.0310750643939
3413.442,0.025728100299,0.0288168810009
3415.371,0.0249631340355,0.0257853750113
3417.299,0.0242084100449,0.0264358839003
3419.228,0.0234631454187,0.0298943295637
3421.156,0.0227281128519,0.0300983300875
3423.085,0.0220025498628,0.0280380849295
3425.013,0.0212872087199,0.0278175623304
3426.942,0.0205813473679,0.0260271637005
3428.87,0.0198856976488,0.0244679867746
3430.799,0.019199537934,0.023678355526
3432.727,0.0185235796387,0.0220019939993
3434.656,0.0178571215611,0.0197227834222
3436.584,0.0172008546895,0.0189748756248
3438.513,0.0165540982492,0.016378429801
3440.441,0.0159175228014,0.015739507422
3442.37,0.0152904679982,0.017522783796
3444.298,0.0146735839742,0.0188724081414
3446.227,0.0140662308082,0.0192797714156
3448.155,0.013469038208,0.0189551506124
3450.084,0.0128813866792,0.0188048561188
3452.012,0.0123038855027,0.0177145113435
3453.941,0.0117359356111,0.0147507216213
3455.869,0.0111781258585,0.0149924492957
3457.798,0.010629877604,0.0183370181809
3459.726,0.0100917592752,0.0199611063874
3461.655,0.00956321265795,0.0182177435737
3463.583,0.0090447857529,0.0163900166326
3465.512,0.00853594077283,0.0157467843864
3467.44,0.00803720529157,0.0149002757556
3469.369,0.00754806194868,0.0149079170264
3471.297,0.00706901789122,0.018546164561
3473.226,0.00659957618551,0.0182635088241
3475.154,0.00614022355184,0.0172789617307
3477.083,0.00569048348331,0.0186101331143
3479.011,0.00525082227343,0.0198753780702
3480.94,0.00482078384209,0.0197822182806
3482.868,0.004400814056,0.0225172593292
3484.797,0.00399047726185,0.0243892356665
3486.725,0.00359019889955,0.0238677511662
3488.654,0.00319956374258,0.0222814329217
3490.582,0.00281897680407,0.0231991167975
3492.511,0.00244804328428,0.025616952167
3494.439,0.00208714776956,0.0263292577697
3496.368,0.00173591588696,0.0257044965259
3498.296,0.00139471179603,0.0282112722331
3500.225,0.00106318155062,0.0286663747013
3502.153,0.000741668883482,0.0302664681831
3504.082,0.000429840275249,0.029502435071
3506.01,0.000128019031902,0.0299038216635
3507.939,-0.000164107939142,0.0307949580352
3509.867,-0.000446237758698,0.034373762271
3511.796,-0.00071866309256,0.0362621787097
3513.724,-0.000981101488328,0.0353351396972
3515.653,-0.001233825185,0.0334717712074
3517.581,-0.00147657215698,0.0326392124077
3519.51,-0.00170959421647,0.0321551617895
3521.438,-0.00193264976466,0.0333967658063
3523.367,-0.00214597018696,0.0357062653452
3525.295,-0.00234933431136,0.0363667708827
3527.224,-0.00254295309648,0.036831995854
3529.152,-0.00272662579708,0.0390827867189
3531.081,-0.00290054294502,0.0385178986511
3533.009,-0.00306452422184,0.038847502085
3534.938,-0.00321873973259,0.0387323857449
3536.866,-0.00336302958561,0.0380196049419
3538.795,-0.00349754345918,0.0378031130538
3540.723,-0.00362214188841,0.0365007429194
3542.652,-0.00373695412479,0.0361327390232
3544.58,-0.00384186113024,0.0406633005318
3546.509,-0.00393697172943,0.0412986921378
3548.437,-0.00402218731109,0.0391677953168
3550.366,-0.0040975962731,0.0383604589032
3552.294,-0.00416312043096,0.0406487668476
3554.223,-0.00421882775579,0.043880861517
3556.151,-0.00426466048986,0.0458368832736
3558.08,-0.00430066617751,0.0496355999691
3560.008,-0.00432680748779,0.0524690292608
3561.937,-0.00434311153824,0.0538815225359
3563.865,-0.00434956142474,0.0575437896669
3565.794,-0.00434616383801,0.0584338521024
3567.722,-0.00433292230071,0.0528799252321
3569.651,-0.0043098230768,0.0493939734862
3571.579,-0.0042768901157,0.046883531175
3573.508,-0.00423408925461,0.0427418725357
3575.436,-0.00418146486973,0.0425649178163
3577.365,-0.00411896237145,0.0403932977601
3579.293,-0.00404664656278,0.0392609394972
3581.222,-0.00396444242731,0.039624707261
3583.15,-0.00387243519485,0.0411045690269
3585.079,-0.0037705294222,0.0444545989663
3587.007,-0.00365883076595,0.0503470951953
3588.936,-0.00353722335611,0.0570468766463
3590.864,-0.00340583327607,0.0647324783787
3592.793,-0.00326452422905,0.0720748951984
3594.721,-0.00311344272522,0.086419214483
3596.65,-0.00295243204101,0.101444598219
3598.578,-0.00278165911338,0.108759825494
3600.507,-0.002600946792,0.0956530543428
3602.435,-0.00241048244058,0.0711954819352
3604.364,-0.00221006848201,0.0537222488115
3606.292,-0.0019999127068,0.0441872168613
3608.221,-0.00177979711104,0.034617712809
3610.149,-0.00154994991205,0.0330179575942
3612.078,-0.00131013267911,0.0346289439598
3614.006,-0.00106059405632,0.0324784147376
3615.935,-0.000801075186192,0.0289288422942
3617.863,-0.000531845139612,0.0276900883419
3619.792,-0.000252624632303,0.0259386147263
3621.72,3.62968380649e-05,0.0250518462934
3623.649,0.000335218982563,0.0225424217735
3625.577,0.000643831876722,0.0225713707918
3627.506,0.000962455658403,0.017172791486
3629.434,0.00129075997635,0.0162304166132
3631.363,0.00162908539522,0.0266205860897
3633.291,0.00197708113696,0.0291947575368
3635.22,0.00233510819301,0.0284961361211
3637.148,0.00270279535854,0.0253699833739
3639.077,0.00308052405178,0.0254956914541
3641.005,0.0034679026411,0.0285584796494
3642.934,0.00386533297152,0.0254153200154
3644.862,0.00427240298463,0.0205695054355
3646.791,0.00468953495223,0.0149863975253
3648.719,0.00511629638914,0.00912751236453
3650.648,0.00555312999393,0.012262800462
3652.576,0.00599958285462,0.0212815249994
3654.505,0.00645611809659,0.0217248684596
3656.433,0.00692226238108,0.0209923742307
3658.362,0.00739849926024,0.0229817696167
3660.29,0.00788433496851,0.0217120463112
3662.219,0.00838027348486,0.0171774440932
3664.147,0.00888580061692,0.0152693595974
3666.076,0.00940144077045,0.0145989130151
3668.004,0.0099266593263,0.0139987930137
3669.933,0.010462001117,0.00754664135746
3671.861,0.0110069110967,0.00963283417777
3673.79,0.0115619545246,0.00868882885763
3675.718,0.012126555928,0.0022912142125
3677.647,0.0127013009931,0.00886364391746
3679.575,0.0132855938203,0.0113707288321
3681.504,0.0138800405226,0.011885804014
3683.432,0.0144840247736,0.0120000043379
3685.361,0.015098173113,0.00766969305495
3687.289,0.0157218487879,0.0012757252544
3689.218,0.0163556987645,-0.0007090799431
3691.146,0.0169990658631,0.0035102841824
3693.075,0.0176526174769,0.00422183920963
3695.003,0.0183156759993,0.00422329094703
3696.932,0.0189889292503,0.00436864681358
3698.86,0.0196716791965,0.0036858968674
