wavenumber (/cm),baseline value (/cm),baseline-subtracted absorbance (/cm),
3.149237999999999829e+03,1.517604872131812499e-01,1.973466087132003111e-03
3.151166999999999916e+03,1.501413545095271473e-01,4.369410677979246316e-03
3.153094999999999800e+03,1.485322903202934697e-01,3.326094396173040479e-03
3.155023000000000138e+03,1.469324528888815706e-01,9.064230840287734736e-04
3.156952000000000226e+03,1.453410196038369406e-01,6.915286626143490878e-04
3.158880999999999858e+03,1.437588226504225020e-01,3.209235572563251537e-03
3.160809000000000196e+03,1.421866750638152155e-01,2.048137429867313841e-03
3.162737999999999829e+03,1.406229459855250497e-01,1.499261636025650546e-03
3.164666000000000167e+03,1.390692567002318469e-01,5.374289241343532808e-03
3.166594000000000051e+03,1.375247941727639756e-01,4.467018219837193271e-03
3.168523000000000138e+03,1.359887645130797296e-01,4.184590384322728340e-03
3.170452000000000226e+03,1.344619711850274513e-01,3.887872138534476107e-03
3.172380000000000109e+03,1.329451985023606397e-01,3.797953221080341280e-03
3.174309000000000196e+03,1.314368730494326343e-01,4.580007573229849527e-03
3.176237000000000080e+03,1.299385586680799065e-01,3.163129394185837384e-03
3.178166000000000167e+03,1.284487010902708448e-01,3.832710008486284181e-03
3.180094000000000051e+03,1.269688450102304245e-01,7.962924928110126643e-03
3.182021999999999935e+03,1.254982156880171118e-01,9.873764499994663879e-03
3.183951000000000022e+03,1.240360575288192990e-01,7.459949749053951251e-03
3.185880000000000109e+03,1.225831357012516776e-01,6.628428030679867078e-03
3.187807999999999993e+03,1.211401962238394248e-01,6.347421283488863253e-03
3.189737000000000080e+03,1.197057422713925234e-01,6.182764753777103550e-03
3.191664999999999964e+03,1.182812610952925780e-01,6.141563123851945249e-03
3.193594000000000051e+03,1.168652750179717259e-01,9.175865182169840040e-03
3.195521999999999935e+03,1.154592521431858643e-01,9.516488279335266753e-03
3.197449999999999818e+03,1.140624560262235576e-01,1.011473997094647359e-02
3.199378999999999905e+03,1.126741693675086253e-01,1.282770064158889056e-02
3.201307999999999993e+03,1.112951190404292134e-01,1.316611617639074083e-02
3.203235999999999876e+03,1.099260127682697430e-01,1.199453711548681412e-02
3.205164999999999964e+03,1.085654303163074985e-01,1.195615059949117764e-02
3.207092999999999847e+03,1.072147823454603355e-01,1.286759913639512476e-02
3.209021000000000186e+03,1.058733611324402801e-01,1.342311112066774115e-02
3.210949999999999818e+03,1.045404780990875082e-01,1.274497626258241922e-02
3.212878000000000156e+03,1.032175151873815366e-01,1.081917742355509304e-02
3.214806999999999789e+03,1.019031000291512612e-01,1.131331561827630949e-02
3.216735999999999876e+03,1.005979212025547298e-01,1.385320585698224249e-02
3.218664000000000215e+03,9.930264813564804172e-02,1.593691519195772344e-02
3.220592999999999847e+03,9.801593718417400680e-02,1.623252132184038743e-02
3.222521000000000186e+03,9.673912241857784977e-02,1.413017910775371533e-02
3.224449000000000069e+03,9.547153441081057679e-02,1.359245022479038667e-02
3.226378000000000156e+03,9.421252287794601443e-02,1.212882959349848022e-02
3.228306000000000040e+03,9.296339317149104886e-02,1.223674834271104572e-02
3.230235000000000127e+03,9.172284951374543027e-02,1.420305769337071311e-02
3.232164000000000215e+03,9.049154218763177937e-02,1.560873073261515032e-02
3.234092000000000098e+03,8.927010232597965000e-02,1.987676919934111552e-02
3.236021000000000186e+03,8.805726287498849558e-02,2.252749402382869803e-02
3.237949000000000069e+03,8.685428131465044999e-02,1.908072323402087989e-02
3.239876999999999953e+03,8.566052651213595936e-02,1.442589823263284998e-02
3.241806000000000040e+03,8.447538647975250115e-02,1.707975351822588195e-02
3.243733999999999924e+03,8.330008997855209429e-02,2.078865964239229314e-02
3.245663000000000011e+03,8.213341782129290891e-02,2.180370944040710413e-02
3.247592000000000098e+03,8.097598199566391486e-02,2.165062267430428733e-02
3.249519999999999982e+03,7.982837533926456786e-02,2.114453479921740708e-02
3.251447999999999865e+03,7.868999544069055219e-02,2.402252856618325438e-02
3.253376999999999953e+03,7.756025903366925434e-02,2.602763139390606995e-02
3.255304999999999836e+03,7.644033743641287515e-02,2.835497237860762354e-02
3.257233999999999924e+03,7.532906890451407378e-02,2.837809777899957808e-02
3.259161999999999807e+03,7.422760560856644929e-02,2.712991991453073126e-02
3.261090999999999894e+03,7.313480495178836804e-02,2.698042804123668148e-02
3.263019999999999982e+03,7.205124062664580720e-02,2.728768588705099418e-02
3.264947999999999865e+03,7.097746717550101891e-02,2.766298566994507269e-02
3.266876000000000204e+03,6.991292048217800925e-02,2.817057289697899591e-02
3.268804999999999836e+03,6.885705557564492096e-02,2.579370759022969750e-02
3.270733000000000175e+03,6.781096718363777143e-02,2.690954226748942801e-02
3.272661999999999807e+03,6.677357015222362691e-02,3.087173460871817099e-02
3.274590999999999894e+03,6.574540945244500278e-02,3.302644943767951702e-02
3.276518999999999778e+03,6.472701090523891310e-02,3.122770455013323954e-02
3.278447999999999865e+03,6.371731808057923274e-02,3.212873468400179178e-02
3.280376000000000204e+03,6.271737783468722682e-02,3.545102406564604181e-02
3.282304000000000087e+03,6.172666434662055224e-02,3.628303948437094917e-02
3.284233000000000175e+03,6.074467094056856808e-02,3.554917319164641043e-02
3.286161000000000058e+03,5.977241575381597727e-02,3.449777529035680246e-02
3.288090000000000146e+03,5.880889022288826595e-02,3.462788325330734551e-02
3.290018999999999778e+03,5.785460102359074597e-02,3.445309128410123378e-02
3.291947000000000116e+03,5.691003568163921500e-02,3.457990670186417148e-02
3.293875000000000000e+03,5.597469709751301536e-02,3.668678071508146843e-02
3.295804000000000087e+03,5.504810731682674430e-02,3.610624424488317885e-02
3.297731999999999971e+03,5.413122703401462843e-02,3.209893570731736645e-02
3.299661000000000058e+03,5.322310512844730113e-02,2.989829384052056227e-02
3.301588999999999942e+03,5.232468314694749267e-02,3.422237032520492050e-02
3.303518000000000029e+03,5.143502911650088549e-02,3.737119750838546750e-02
3.305447000000000116e+03,5.055461141769157507e-02,3.809594958503792483e-02
3.307375000000000000e+03,4.968387928099282647e-02,4.044196727717963569e-02
3.309302999999999884e+03,4.882237390211940919e-02,4.271760385993461639e-02
3.311231999999999971e+03,4.796965562191601862e-02,4.126616768749480357e-02
3.313159999999999854e+03,4.712660854435668512e-02,4.072844048020662910e-02
3.315088999999999942e+03,4.629235813927756737e-02,4.279184281088932451e-02
3.317016999999999825e+03,4.546776936303054129e-02,4.242063658056594022e-02
3.318945999999999913e+03,4.465198683307036731e-02,3.885402752051314579e-02
3.320875000000000000e+03,4.384544063474216102e-02,3.860174424345474975e-02
3.322802999999999884e+03,4.304854170329619478e-02,3.876435630539720734e-02
3.324731000000000222e+03,4.226086952967733623e-02,3.953332838804213267e-02
3.326659999999999854e+03,4.148202274996037886e-02,4.096263508891562211e-02
3.328588000000000193e+03,4.071280887765205136e-02,4.342243826679359486e-02
3.330516999999999825e+03,3.995242997305581412e-02,4.236082182114175865e-02
3.332445000000000164e+03,3.920167440206334675e-02,4.423509907413203379e-02
3.334373999999999796e+03,3.845976337258960598e-02,4.709214201505806940e-02
3.336302000000000135e+03,3.772746610290766967e-02,4.831923358373968469e-02
3.338231000000000222e+03,3.700402294855464902e-02,4.738948761446959423e-02
3.340159000000000106e+03,3.629018398018857283e-02,4.954626603497347404e-02
3.342088000000000193e+03,3.558520870095449595e-02,5.113267262927934098e-02
3.344016000000000076e+03,3.488982803390072718e-02,4.995299012034948305e-02
3.345945000000000164e+03,3.420332062978737042e-02,4.816097735868929419e-02
3.347873000000000047e+03,3.352639826404768542e-02,4.560783806466961465e-02
3.349802000000000135e+03,3.285835873505860150e-02,4.648814889660002336e-02
3.351730000000000018e+03,3.219989467063300026e-02,5.047169129924444775e-02
3.353659000000000106e+03,3.155032301676108375e-02,5.190616136613535048e-02
3.355586999999999989e+03,3.091031725364778993e-02,4.848875279588193976e-02
3.357516000000000076e+03,3.027921347490192261e-02,4.858008097571975270e-02
3.359443999999999960e+03,2.965766601310093620e-02,5.169430002349040265e-02
3.361373000000000047e+03,2.904503010947223629e-02,5.254700466258910296e-02
3.363302000000000135e+03,2.844163053747728043e-02,4.844050834860347265e-02
3.365230000000000018e+03,2.784777292047913022e-02,4.145223718767798715e-02
3.367157999999999902e+03,2.726314206130631135e-02,4.325035232866625279e-02
3.369086999999999989e+03,2.668744190792260440e-02,4.999455546395692451e-02
3.371014999999999873e+03,2.612126935006209294e-02,5.071133956533291354e-02
3.372943999999999960e+03,2.556403707179732976e-02,5.086525636800898198e-02
3.374871999999999844e+03,2.501632281525090207e-02,5.332037990384330683e-02
3.376800999999999931e+03,2.447755841211041172e-02,5.687137517729601299e-02
3.378728999999999814e+03,2.394830245687629144e-02,5.682092831235463493e-02
3.380657999999999902e+03,2.342800592885296851e-02,5.545251565206266164e-02
3.382585999999999785e+03,2.291720827493470836e-02,5.498585449672210856e-02
3.384514999999999873e+03,2.241537962203210554e-02,5.424084194877520915e-02
3.386443000000000211e+03,2.192304026942792916e-02,5.577836476443476244e-02
3.388371999999999844e+03,2.143967949164782283e-02,5.752372897898849757e-02
3.390300000000000182e+03,2.096579844035595386e-02,5.546854907809128932e-02
3.392228999999999814e+03,2.050090553769479129e-02,5.588189037860979980e-02
3.394157000000000153e+03,2.004548278771700609e-02,5.893106628738653541e-02
3.396085999999999785e+03,1.959905776018011636e-02,5.879981012620394409e-02
3.398014000000000124e+03,1.916209331151286221e-02,5.758257463552007849e-02
3.399943000000000211e+03,1.873413615909669261e-02,6.118146072759067522e-02
3.401871000000000095e+03,1.831563001174529859e-02,6.090300943028426062e-02
3.403800000000000182e+03,1.790614073444807275e-02,5.947180326636036796e-02
3.405728000000000065e+03,1.750609288840898614e-02,6.579775831951550913e-02
3.407657000000000153e+03,1.711507148623603314e-02,6.866426744027753770e-02
3.409585000000000036e+03,1.673348194151103030e-02,6.561666462676996048e-02
3.411514000000000124e+03,1.636092841445702106e-02,6.243923331605971683e-02
3.413442000000000007e+03,1.599779717104432564e-02,6.486190160586868814e-02
3.415371000000000095e+03,1.564371151911103652e-02,6.609792398073732755e-02
3.417298999999999978e+03,1.529903857701242487e-02,6.337830904251617881e-02
3.419228000000000065e+03,1.496342080020340859e-02,6.513109047039211674e-02
3.421155999999999949e+03,1.463720615941710435e-02,6.239301723085866058e-02
3.423085000000000036e+03,1.432005625772525548e-02,6.286229489965888817e-02
3.425012999999999920e+03,1.401229991825303500e-02,6.375329191435596954e-02
3.426942000000000007e+03,1.371361789168723533e-02,6.467059316663625879e-02
3.428869999999999891e+03,1.342431985352732227e-02,6.717003979470925756e-02
3.430798999999999978e+03,1.314410570207869000e-02,6.723343397243830566e-02
3.432726999999999862e+03,1.287326596523286071e-02,6.865710904740263132e-02
3.434655999999999949e+03,1.261151968890494857e-02,7.339980144725188893e-02
3.436583999999999833e+03,1.235913825337320304e-02,7.521237695940374834e-02
3.438512999999999920e+03,1.211585985216956374e-02,7.068207808374493695e-02
3.440440999999999804e+03,1.188193671795190198e-02,7.164631558165401870e-02
3.442369999999999891e+03,1.165712619186543009e-02,7.214354094651520555e-02
3.444297999999999774e+03,1.144166135896007575e-02,7.704666371937829439e-02
3.446226999999999862e+03,1.123531870799787669e-02,7.679611766115179705e-02
3.448155000000000200e+03,1.103831217640482976e-02,6.825411681379023321e-02
3.450083999999999833e+03,1.085043740056335082e-02,7.123891870981768903e-02
3.452012000000000171e+03,1.067188917028616402e-02,7.448731430692046018e-02
3.453940999999999804e+03,1.050248226956185249e-02,7.554623904854196326e-02
3.455869000000000142e+03,1.034239234059874946e-02,7.666913095870375727e-02
3.457797999999999774e+03,1.019145331499871077e-02,7.635105148637588712e-02
3.459726000000000113e+03,1.004982168734613879e-02,7.534793430173669648e-02
3.461655000000000200e+03,9.917350536868596578e-03,7.313025888393376306e-02
3.463583000000000084e+03,9.794177210530108368e-03,7.300325531751994390e-02
3.465512000000000171e+03,9.680173935171509925e-03,7.600616994433906370e-02
3.467440000000000055e+03,9.575458910145329128e-03,7.569493429717288890e-02
3.469369000000000142e+03,9.479923509911003521e-03,7.457597459986331501e-02
3.471297000000000025e+03,9.393666786198906493e-03,7.076604209887138452e-02
3.473226000000000113e+03,9.316599261081748296e-03,7.186656054888462819e-02
3.475153999999999996e+03,9.248800838683735037e-03,7.557329559313652467e-02
3.477083000000000084e+03,9.190201188689073319e-03,7.833633272417817039e-02
3.479010999999999967e+03,9.140861067603367474e-03,7.778929156557135016e-02
3.480940000000000055e+03,9.100729292731202236e-03,7.212084151491016115e-02
3.482867999999999938e+03,9.069847472959580159e-03,7.313069836753349762e-02
3.484797000000000025e+03,9.048183573206358687e-03,7.712739511879806997e-02
3.486724999999999909e+03,9.035760054748820380e-03,7.525161485680476048e-02
3.488653999999999996e+03,9.032564030119871745e-03,7.178265885474832686e-02
3.490581999999999880e+03,9.038598812974640850e-03,7.384930172275794291e-02
3.492510999999999967e+03,9.053870663462859625e-03,7.271960553182665876e-02
3.494438999999999851e+03,9.078363747631712499e-03,7.285178888554355581e-02
3.496367999999999938e+03,9.112103473242427754e-03,7.228231682393726487e-02
3.498295999999999822e+03,9.155054858723588040e-03,7.257647248384158090e-02
3.500224999999999909e+03,9.207262459458576132e-03,7.372208152113346458e-02
3.502152999999999793e+03,9.268672146253820188e-03,6.579602006035711881e-02
3.504081999999999880e+03,9.339347622105975688e-03,6.241492307434581832e-02
3.506010000000000218e+03,9.419215610215303514e-03,6.888968967635111795e-02
3.507938999999999851e+03,9.508358961189955494e-03,7.122549325755045402e-02
3.509867000000000189e+03,9.606685250609814375e-03,7.195856290465130201e-02
3.511795999999999822e+03,9.714296476706962835e-03,7.597356362639606786e-02
3.513724000000000160e+03,9.831081067442681842e-03,7.827515566560094840e-02
3.515652999999999793e+03,9.957160168656997712e-03,7.789889967163388107e-02
3.517581000000000131e+03,1.009240306070680049e-02,7.577437142630394362e-02
3.519510000000000218e+03,1.023695003704716555e-02,7.218092118502905663e-02
3.521438000000000102e+03,1.039065123040927574e-02,7.092644166355599467e-02
3.523367000000000189e+03,1.055366608186680821e-02,6.324194697787266506e-02
3.525295000000000073e+03,1.072582557654300217e-02,5.986499621664398418e-02
3.527224000000000160e+03,1.090730830312125477e-02,5.497665005127094773e-02
3.529152000000000044e+03,1.109792609910975614e-02,5.274822774704412964e-02
3.531081000000000131e+03,1.129787670081228157e-02,6.227586230656667610e-02
3.533009000000000015e+03,1.150695279811486671e-02,7.004414393695013175e-02
3.534938000000000102e+03,1.172537127493633591e-02,7.053936136430394299e-02
3.536865999999999985e+03,1.195290567355122846e-02,6.416859437698985147e-02
3.538795000000000073e+03,1.218979202549697050e-02,6.529883629755950381e-02
3.540722999999999956e+03,1.243578472542594682e-02,6.693346626011908995e-02
3.542652000000000044e+03,1.269113895248885626e-02,6.541762481987545286e-02
3.544579999999999927e+03,1.295558995373191635e-02,5.902409265012975581e-02
3.546509000000000015e+03,1.322941205591554592e-02,5.382355468824684408e-02
3.548436999999999898e+03,1.351232135847091342e-02,5.642854592142398928e-02
3.550365999999999985e+03,1.380461133578059219e-02,5.989143637472205128e-02
3.552293999999999869e+03,1.410597893965004346e-02,5.318958357930281267e-02
3.554222999999999956e+03,1.441673679207511327e-02,5.639444282987993162e-02
3.556150999999999840e+03,1.473656269725864831e-02,6.806794554088968496e-02
3.558079999999999927e+03,1.506578842480976732e-02,7.809503235756176664e-02
3.560007999999999811e+03,1.540407263130560978e-02,8.432603956924022981e-02
3.561936999999999898e+03,1.575176623397389619e-02,8.652155833895625037e-02
3.563864999999999782e+03,1.610850874178382242e-02,8.485631487087141878e-02
3.565793999999999869e+03,1.647467021957282896e-02,7.380785277648538312e-02
3.567722000000000207e+03,1.684987102869683895e-02,5.565442493814831693e-02
3.569650999999999840e+03,1.723450038161011832e-02,6.262297460070032074e-02
3.571579000000000178e+03,1.762815949204288302e-02,6.980032529517998796e-02
3.573507999999999811e+03,1.803125672007688252e-02,6.703293007866983899e-02
3.575436000000000149e+03,1.844337413182906005e-02,6.018747596419871115e-02
3.577364999999999782e+03,1.886493923498377967e-02,6.040929507210179850e-02
3.579293000000000120e+03,1.929551494804471190e-02,6.288279294642595829e-02
3.581222000000000207e+03,1.973554792632192800e-02,5.996070194732583403e-02
3.583150000000000091e+03,2.018458194069694400e-02,6.117850306890604273e-02
3.585079000000000178e+03,2.064308279409310387e-02,6.375143858465959212e-02
3.587007000000000062e+03,2.111057510978220364e-02,4.489872439491771061e-02
3.588936000000000149e+03,2.158754383829908363e-02,4.726416949436007542e-02
3.590864000000000033e+03,2.207349445530226717e-02,8.019983011762787939e-02
3.592793000000000120e+03,2.256893105894342000e-02,9.620697109409404035e-02
3.594721000000000004e+03,2.307333997725891095e-02,1.067826187814597816e-01
3.596650000000000091e+03,2.358724445601723119e-02,1.243734348121519062e-01
3.598577999999999975e+03,2.411011167564680591e-02,1.327391756992648553e-01
3.600507000000000062e+03,2.464248402953117534e-02,1.172962605373339962e-01
3.602434999999999945e+03,2.518380955047305747e-02,8.789210271072134262e-02
3.604364000000000033e+03,2.573464977947459431e-02,6.647044473179564150e-02
3.606291999999999916e+03,2.629443360173056021e-02,5.321228832286228894e-02
3.608221000000000004e+03,2.686374170585281718e-02,4.123996798787032958e-02
3.610148999999999887e+03,2.744198382942286685e-02,3.546866006019566697e-02
3.612077999999999975e+03,2.802975980866939665e-02,2.415764542735576725e-02
3.614005999999999858e+03,2.862646023355175373e-02,8.881878996207070998e-03
3.615934999999999945e+03,2.923270408791545094e-02,1.716373784072100506e-02
3.617862999999999829e+03,2.984786281411189179e-02,1.738502912968709069e-02
3.619791999999999916e+03,3.047257454360163820e-02,8.261378756711401650e-03
3.621719999999999800e+03,3.110619157111038646e-02,2.230531151187742367e-02
3.623648999999999887e+03,3.174937117571730028e-02,3.489118275130120850e-02
3.625577000000000226e+03,3.240144650454190867e-02,3.587157482367020478e-02
3.627505999999999858e+03,3.306309398426776625e-02,2.751155475726640987e-02
3.629434000000000196e+03,3.373362761440645841e-02,-1.197733528649802537e-02
3.631362999999999829e+03,3.441374296925658882e-02,9.733633963928234323e-03
3.633291000000000167e+03,3.510273490070758839e-02,2.781245765968876071e-02
3.635219999999999800e+03,3.580131813067666258e-02,2.820858786346081004e-02
3.637148000000000138e+03,3.650876836344174592e-02,3.496297933695213800e-02
3.639077000000000226e+03,3.722581946853154022e-02,3.127766784573093872e-02
3.641005000000000109e+03,3.795172800260893098e-02,3.191585513698447230e-02
3.642934000000000196e+03,3.868724698282477448e-02,2.842788492862746708e-02
3.644862000000000080e+03,3.943161381821447264e-02,2.882826690552953153e-02
3.646791000000000167e+03,4.018560067354748355e-02,9.756277422075854133e-03
3.648719000000000051e+03,4.094842581025126549e-02,-3.092871490354953679e-02
3.650648000000000138e+03,4.172088054070854923e-02,-4.172088054070854923e-02
3.652576000000000022e+03,4.250216397872463858e-02,-3.818246056961793755e-03
3.654505000000000109e+03,4.329308658430086609e-02,1.990210193283203921e-02
3.656432999999999993e+03,4.409282832363103921e-02,8.537314201387147250e-03
3.658362000000000080e+03,4.490221880432798685e-02,1.444428882733062025e-02
