wavenumber (/cm),baseline value (/cm),baseline-subtracted absorbance (/cm),
3.149237999999999829e+03,1.969291923582368042e-01,-5.009097341592827490e-04
3.151166999999999916e+03,1.950867771747226698e-01,1.315590225883234154e-04
3.153094999999999800e+03,1.932545462560106841e-01,2.696627806821894069e-04
3.155023000000000138e+03,1.914315420951222535e-01,7.497982465332064805e-04
3.156952000000000226e+03,1.896168263302175916e-01,4.215846674573420216e-04
3.158880999999999858e+03,1.878113468969466737e-01,1.010041963863450576e-03
3.160809000000000196e+03,1.860160325808610793e-01,5.229343654642448769e-04
3.162737999999999829e+03,1.842290210227126579e-01,1.065126354220069516e-03
3.164666000000000167e+03,1.824521650079375945e-01,1.674490202817402462e-03
3.166594000000000051e+03,1.806845357509896388e-01,1.494782959209572937e-03
3.168523000000000138e+03,1.789252236114506900e-01,1.552892228032121125e-03
3.170452000000000226e+03,1.771751478035419325e-01,9.113780227996137739e-04
3.172380000000000109e+03,1.754352083913950366e-01,1.559636448390300245e-03
3.174309000000000196e+03,1.737036004586069993e-01,3.496945381886273907e-03
3.176237000000000080e+03,1.719821193477741872e-01,3.874546981954107849e-03
3.178166000000000167e+03,1.702689792901104227e-01,3.867278670063090118e-03
3.180094000000000051e+03,1.685659564805916943e-01,3.266147026938615028e-03
3.182021999999999935e+03,1.668721604288965210e-01,4.463632556042096411e-03
3.183951000000000022e+03,1.651867197898386763e-01,5.052338129902356201e-03
3.185880000000000109e+03,1.635105154824181284e-01,3.348880049776514767e-03
3.187807999999999993e+03,1.618444092755240149e-01,2.547079656043393925e-03
3.189737000000000080e+03,1.601866728432206344e-01,4.122434606490976705e-03
3.191664999999999964e+03,1.585390249376423810e-01,4.491906023643021939e-03
3.193594000000000051e+03,1.568997563804597206e-01,4.746862440929255911e-03
3.195521999999999935e+03,1.552705667761937747e-01,3.880853419904184420e-03
3.197449999999999818e+03,1.536506039297567128e-01,2.684178239453771653e-03
3.199378999999999905e+03,1.520390347911817486e-01,3.504278662775472952e-03
3.201307999999999993e+03,1.504367019842423048e-01,4.281280427563594060e-03
3.203235999999999876e+03,1.488444289826027500e-01,4.922375828880110049e-03
3.205164999999999964e+03,1.472605640507875790e-01,5.432754457248112345e-03
3.207092999999999847e+03,1.456867493504621081e-01,5.083997642361115510e-03
3.209021000000000186e+03,1.441221614079584157e-01,6.042601555753090992e-03
3.210949999999999818e+03,1.425659958947509409e-01,6.825493036816787651e-03
3.212878000000000156e+03,1.410198662535648850e-01,6.804352891284892735e-03
3.214806999999999789e+03,1.394821686154781304e-01,5.660861810075523692e-03
3.216735999999999876e+03,1.379537073090215671e-01,5.808043423819686524e-03
3.218664000000000215e+03,1.364352675126365710e-01,6.163539724803879238e-03
3.220592999999999847e+03,1.349252740813025042e-01,8.711640909094597873e-03
3.222521000000000186e+03,1.334252925862298156e-01,8.973878544872970764e-03
3.224449000000000069e+03,1.319345378489824583e-01,8.958517846964220155e-03
3.226378000000000156e+03,1.304522438362578640e-01,9.323860479925283329e-03
3.228306000000000040e+03,1.289799474003245905e-01,1.066677250263703414e-02
3.230235000000000127e+03,1.275161212627224927e-01,1.005236150286892283e-02
3.232164000000000215e+03,1.260615314567505862e-01,1.030306977644457334e-02
3.234092000000000098e+03,1.246169248656183726e-01,1.104819188359806859e-02
3.236021000000000186e+03,1.231808029347707389e-01,1.051170692068215118e-02
3.237949000000000069e+03,1.217546546449526090e-01,1.116710821767696871e-02
3.239876999999999953e+03,1.203377331129598105e-01,1.266236796861308633e-02
3.241806000000000040e+03,1.189293106007180967e-01,1.207240778601947895e-02
3.243733999999999924e+03,1.175308473700376055e-01,1.354112270981655541e-02
3.245663000000000011e+03,1.161408927329183882e-01,1.316417145388060206e-02
3.247592000000000098e+03,1.147601744274346913e-01,1.307516369042627247e-02
3.249519999999999982e+03,1.133894010415552600e-01,1.392081830545732757e-02
3.251447999999999865e+03,1.120278544135029364e-01,1.546532258033073148e-02
3.253376999999999953e+03,1.106748355266251593e-01,1.486847792733225759e-02
3.255304999999999836e+03,1.093317471998851431e-01,1.494855200157019226e-02
3.257233999999999924e+03,1.079971961881316389e-01,1.651356899937450606e-02
3.259161999999999807e+03,1.066725661627039301e-01,1.776087162158779265e-02
3.261090999999999894e+03,1.053564830260693697e-01,1.803429833448833008e-02
3.263019999999999982e+03,1.040496362210667769e-01,1.927847456433662288e-02
3.264947999999999865e+03,1.027526960404419043e-01,1.837234186514713485e-02
3.266876000000000204e+03,1.014649826176423630e-01,1.837126523437415671e-02
3.268804999999999836e+03,1.001858352312510192e-01,1.833685758184877557e-02
3.270733000000000175e+03,9.891658010976556170e-02,2.036119205236941454e-02
3.272661999999999807e+03,9.765590059849138527e-02,1.999243660963534452e-02
3.274590999999999894e+03,9.640445741885628195e-02,2.031089687205600569e-02
3.276518999999999778e+03,9.516289214217010795e-02,2.046280279364331989e-02
3.278447999999999865e+03,9.392991683765217203e-02,2.087095246387393743e-02
3.280376000000000204e+03,9.270680986228185816e-02,1.961655008919871435e-02
3.282304000000000087e+03,9.149292964473509926e-02,1.997831264779481586e-02
3.284233000000000175e+03,9.028765375882663591e-02,2.054121513837303681e-02
3.286161000000000058e+03,8.909223184259396078e-02,2.327054992229005137e-02
3.288090000000000146e+03,8.790542383180799391e-02,2.577546164276967033e-02
3.290018999999999778e+03,8.672785215265399472e-02,2.750342248597936745e-02
3.291947000000000116e+03,8.556012008122237944e-02,2.657017406615480581e-02
3.293875000000000000e+03,8.440161476761609549e-02,2.748406197351327407e-02
3.295804000000000087e+03,8.325174250707156887e-02,2.817047522263660397e-02
3.297731999999999971e+03,8.211169549477759233e-02,3.002112569191961455e-02
3.299661000000000058e+03,8.098029110935556218e-02,3.102921055849083842e-02
3.301588999999999942e+03,7.985870239837744577e-02,3.237722199260595346e-02
3.303518000000000029e+03,7.874576588807435940e-02,3.237270171528150442e-02
3.305447000000000116e+03,7.764206570940679342e-02,2.929667885745823597e-02
3.307375000000000000e+03,7.654816684322796050e-02,2.713827811785574085e-02
3.309302999999999884e+03,7.546349473487623527e-02,2.940004514180394324e-02
3.311231999999999971e+03,7.438749397481458914e-02,3.040225635370052970e-02
3.313159999999999854e+03,7.332128016777517132e-02,3.256419441020907968e-02
3.315088999999999942e+03,7.226374728283424531e-02,3.326996342170396304e-02
3.317016999999999825e+03,7.121599177710891126e-02,3.363895616588097326e-02
3.318945999999999913e+03,7.017692676729225809e-02,3.395882578501741023e-02
3.320875000000000000e+03,6.914709808910757260e-02,3.644321829621510744e-02
3.322802999999999884e+03,6.812703242818329841e-02,3.574944588981887605e-02
3.324731000000000222e+03,6.711619352508435554e-02,3.593697538222340171e-02
3.326659999999999854e+03,6.611406426550914261e-02,3.771086245035037976e-02
3.328588000000000193e+03,6.512168366372250716e-02,3.785870651114864316e-02
3.330516999999999825e+03,6.413802227926801436e-02,3.694051810282017456e-02
3.332445000000000164e+03,6.316409997879723903e-02,3.698499534112587028e-02
3.334373999999999796e+03,6.219890646946168999e-02,3.672154233272140189e-02
3.336302000000000135e+03,6.124344247030322208e-02,3.617190171245177055e-02
3.338231000000000222e+03,6.029671683609194588e-02,3.667892250485582650e-02
3.340159000000000106e+03,5.935971113824756173e-02,3.937272593847307434e-02
3.342088000000000193e+03,5.843145337915522930e-02,3.902230180127519432e-02
3.344016000000000076e+03,5.751290598262137621e-02,3.935305985180681532e-02
3.345945000000000164e+03,5.660311609865154026e-02,3.952798670130830416e-02
3.347873000000000047e+03,5.570302700343177094e-02,4.027392639796278928e-02
3.349802000000000135e+03,5.481170499458443146e-02,4.104496133514334844e-02
3.351730000000000018e+03,5.393007420067874591e-02,4.120335347545589499e-02
3.353659000000000106e+03,5.305722006695035020e-02,4.132365529947001903e-02
3.355586999999999989e+03,5.219404757435874842e-02,4.231975006033250608e-02
3.357516000000000076e+03,5.133966131575284919e-02,4.237104322280949020e-02
3.359443999999999960e+03,5.049494712447533118e-02,4.379950349717631752e-02
3.361373000000000047e+03,4.965902874098837572e-02,4.325262596435885953e-02
3.363302000000000135e+03,4.883234668913338794e-02,4.361281655760640419e-02
3.365230000000000018e+03,4.801532234265692978e-02,4.422919398201674568e-02
3.367157999999999902e+03,4.720752475400402659e-02,4.523966012419222693e-02
3.369086999999999989e+03,4.640854212076384044e-02,4.532803930044249086e-02
3.371014999999999873e+03,4.561920283342502103e-02,4.515861986949598617e-02
3.372943999999999960e+03,4.483868807530022593e-02,4.367490739624502183e-02
3.374871999999999844e+03,4.406780708927549028e-02,4.462824062122638935e-02
3.376800999999999931e+03,4.330576020627674438e-02,4.499202610727781604e-02
3.378728999999999814e+03,4.255333752156431615e-02,4.684118385718871735e-02
3.380657999999999902e+03,4.180975851368273766e-02,4.694289487760361368e-02
3.382585999999999785e+03,4.107579413028439319e-02,4.572547949753325014e-02
3.384514999999999873e+03,4.035068299752531118e-02,4.417827687308983897e-02
3.386443000000000211e+03,3.963517691543927413e-02,4.628415998944301890e-02
3.388371999999999844e+03,3.892853365780268859e-02,4.575558642710575441e-02
3.390300000000000182e+03,3.823148587703251167e-02,4.370321542691968375e-02
3.392228999999999814e+03,3.754331049451309354e-02,4.097180120062482445e-02
3.394157000000000153e+03,3.686472101505522403e-02,4.152100626686161533e-02
3.396085999999999785e+03,3.619501350766185510e-02,4.198905603646041484e-02
3.398014000000000124e+03,3.553488232951451664e-02,4.391978258507123201e-02
3.399943000000000211e+03,3.488364269724186784e-02,4.400749244882096178e-02
3.401871000000000095e+03,3.424196982041038950e-02,4.439191272280185174e-02
3.403800000000000182e+03,3.360919806325490811e-02,4.432216754879370058e-02
3.405728000000000065e+03,3.298598348773751354e-02,4.511671539025652322e-02
3.407657000000000153e+03,3.237167960570630498e-02,4.478135789555670598e-02
3.409585000000000036e+03,3.176692333150121783e-02,4.376527114944472885e-02
3.411514000000000124e+03,3.117108732458895304e-02,4.231673234588484434e-02
3.413442000000000007e+03,3.058478935169794966e-02,4.132464155904713721e-02
3.415371000000000095e+03,3.000742121990640499e-02,3.995871645319581944e-02
3.417298999999999978e+03,2.943958154832770902e-02,3.988519354517228166e-02
3.419228000000000065e+03,2.888068129166043718e-02,3.793474375635286222e-02
3.421155999999999949e+03,2.833129992139582498e-02,3.515146567043636594e-02
3.423085000000000036e+03,2.779086753984749691e-02,3.372485064472741101e-02
3.425012999999999920e+03,2.725994447089519213e-02,3.494666626396769615e-02
3.426942000000000007e+03,2.673797996447113690e-02,3.410706198438173686e-02
3.428869999999999891e+03,2.622551519683291588e-02,3.268128759301802688e-02
3.430798999999999978e+03,2.572201856552602806e-02,3.125159914396524741e-02
3.432726999999999862e+03,2.522801209920189081e-02,3.187903328642427425e-02
3.434655999999999949e+03,2.474298334301572311e-02,3.280275606868965355e-02
3.436583999999999833e+03,2.426743517800389327e-02,3.165038550328613809e-02
3.438512999999999920e+03,2.380087429694199841e-02,2.658020323262411111e-02
3.440440999999999804e+03,2.334378443324425234e-02,2.460729208550604952e-02
3.442369999999999891e+03,2.289569142730130125e-02,2.275931716463253096e-02
3.444297999999999774e+03,2.245705986491586259e-02,2.403136629499469379e-02
3.446226999999999862e+03,2.202743473409718433e-02,2.129360034120830747e-02
3.448155000000000200e+03,2.160726147302405309e-02,2.097183485771481060e-02
3.450083999999999833e+03,2.119610421732431860e-02,2.367855463236745450e-02
3.452012000000000171e+03,2.079438925756704748e-02,2.558587961941638511e-02
3.453940999999999804e+03,2.040169987698625675e-02,2.453916740290873477e-02
3.455869000000000142e+03,2.001844321854306941e-02,2.523223908207317123e-02
3.457797999999999774e+03,1.964422171308655152e-02,2.536083236555475295e-02
3.459726000000000113e+03,1.927942335595567158e-02,2.410327147877566745e-02
3.461655000000000200e+03,1.892366972561809746e-02,2.289731480890111470e-02
3.463583000000000084e+03,1.857732966979952494e-02,2.442125518818061281e-02
3.465512000000000171e+03,1.824004391458444729e-02,2.373711164995606637e-02
3.467440000000000055e+03,1.791216216007995854e-02,2.307186695141272281e-02
3.469369000000000142e+03,1.759334427998737738e-02,2.274123572607722465e-02
3.471297000000000025e+03,1.728392082679519604e-02,2.321643295870945423e-02
3.473226000000000113e+03,1.698357082182155864e-02,2.228257695943769434e-02
3.475153999999999996e+03,1.669260566994346107e-02,2.035277995625639491e-02
3.477083000000000084e+03,1.641072354009232015e-02,2.065892166358684889e-02
3.479010999999999967e+03,1.613821668952830635e-02,2.185177623476119990e-02
3.480940000000000055e+03,1.587480243479610920e-02,2.108668548595593606e-02
3.482867999999999938e+03,1.562075388554617916e-02,2.272504617510229252e-02
3.484797000000000025e+03,1.537580750593470214e-02,2.515032208064127417e-02
3.486724999999999909e+03,1.514021725799707951e-02,2.529089565011943819e-02
3.488653999999999996e+03,1.491373875350987532e-02,2.438778757823989451e-02
3.490581999999999880e+03,1.469660680688456011e-02,2.546663993323461384e-02
3.492510999999999967e+03,1.448859617751629969e-02,2.822696027654192363e-02
3.494438999999999851e+03,1.428992253220506825e-02,3.111591998270402115e-02
3.496367999999999938e+03,1.410037977796108066e-02,3.049175607567278234e-02
3.498295999999999822e+03,1.392016443396393299e-02,3.152964856512641134e-02
3.500224999999999909e+03,1.374908955483711281e-02,3.182454837096893030e-02
3.502152999999999793e+03,1.358733251215227256e-02,3.026438082050697531e-02
3.504081999999999880e+03,1.343472550814617250e-02,3.064290513978651376e-02
3.506010000000000218e+03,1.329142676677719237e-02,3.528433387205787142e-02
3.507938999999999851e+03,1.315728763789536515e-02,3.526634523383220809e-02
3.509867000000000189e+03,1.303244719783513972e-02,3.606539976466338615e-02
3.511795999999999822e+03,1.291677594407403262e-02,3.978665072124432101e-02
3.513724000000000160e+03,1.281039380533144367e-02,4.196975377376466199e-02
3.515652999999999793e+03,1.271319042669105670e-02,3.907241555733742544e-02
3.517581000000000131e+03,1.262526658925899881e-02,3.738079830511020774e-02
3.519510000000000218e+03,1.254653108573933196e-02,3.838948427865940261e-02
3.521438000000000102e+03,1.247706554962313419e-02,3.826891645785668317e-02
3.523367000000000189e+03,1.241679792122241111e-02,3.357885557114581587e-02
3.525295000000000073e+03,1.236579068641852075e-02,3.385780175267960601e-02
3.527224000000000160e+03,1.232399093314029415e-02,3.367873826932621384e-02
3.529152000000000044e+03,1.229144199965226392e-02,3.588100316359410513e-02
3.531081000000000131e+03,1.226811012149475744e-02,4.291636374891893979e-02
3.533009000000000015e+03,1.225401948931725826e-02,4.756908775823109892e-02
3.534938000000000102e+03,1.224915548628047191e-02,4.651714391733818843e-02
3.536865999999999985e+03,1.225352315541705650e-02,4.741038061492552913e-02
3.538795000000000073e+03,1.226712702750454298e-02,4.783951403183017703e-02
3.540722999999999956e+03,1.228995299795343499e-02,4.690998635310261733e-02
3.542652000000000044e+03,1.232202474515986523e-02,4.274064582999415052e-02
3.544579999999999927e+03,1.236330901692284101e-02,3.814108803149540705e-02
3.546509000000000015e+03,1.241384863925176774e-02,3.792932330050335921e-02
3.548436999999999898e+03,1.247359121232882728e-02,4.284683737353978117e-02
3.550365999999999985e+03,1.254259870977669777e-02,4.502537864795108646e-02
3.552293999999999869e+03,1.262079958416606473e-02,4.389946727118587688e-02
3.554222999999999956e+03,1.270827495673465535e-02,4.676812249600947879e-02
3.556150999999999840e+03,1.280493413243810608e-02,5.147485966115361578e-02
3.558079999999999927e+03,1.291087738013096953e-02,5.394700192847112774e-02
3.560007999999999811e+03,1.302599485714672767e-02,5.475273757993015522e-02
3.561936999999999898e+03,1.315040597995853489e-02,5.629212914588732630e-02
3.563864999999999782e+03,1.328398175828837680e-02,5.535444945570100472e-02
3.565793999999999869e+03,1.342686075622445685e-02,4.221096396832813014e-02
3.567722000000000207e+03,1.357889483586482982e-02,3.556090097935760141e-02
3.569650999999999840e+03,1.374024170891985364e-02,4.552489525661140846e-02
3.571579000000000178e+03,1.391073408987786308e-02,5.073143714230621271e-02
3.573507999999999811e+03,1.409054883805183067e-02,4.843345803549548023e-02
3.575436000000000149e+03,1.427949952032214753e-02,4.753794715914816393e-02
3.577364999999999782e+03,1.447778214362038796e-02,4.640819784222793842e-02
3.579293000000000120e+03,1.468519112720123587e-02,4.582779785490709301e-02
3.581222000000000207e+03,1.490194162562019642e-02,4.825129803878924761e-02
3.583150000000000091e+03,1.512780891051690446e-02,4.994800226910456331e-02
3.585079000000000178e+03,1.536302728405480877e-02,4.475220570897064931e-02
3.587007000000000062e+03,1.560735287026560059e-02,3.557732316329342837e-02
3.588936000000000149e+03,1.586103911892777774e-02,4.559554634554174868e-02
3.590864000000000033e+03,1.612382300645087696e-02,6.071131294826415115e-02
3.592793000000000120e+03,1.639597713023022152e-02,6.437375904686470918e-02
3.594721000000000004e+03,1.667721931906740451e-02,7.441446166748866275e-02
3.596650000000000091e+03,1.696784131796924555e-02,8.989913533218762964e-02
3.598577999999999975e+03,1.726754180812228867e-02,9.346934285780283957e-02
3.600507000000000062e+03,1.757663168214307348e-02,8.226467024851480403e-02
3.602434999999999945e+03,1.789479047360664765e-02,6.640420881882258541e-02
3.604364000000000033e+03,1.822234822274992894e-02,5.365877984760247799e-02
3.606291999999999916e+03,1.855896531552758688e-02,4.060711170863084973e-02
3.608221000000000004e+03,1.890499093979514100e-02,2.917193213712776512e-02
3.610148999999999887e+03,1.926006633388510636e-02,3.225918970573893318e-02
3.612077999999999975e+03,1.962455983327160425e-02,2.847763363685862359e-02
3.614005999999999858e+03,1.999809352867387702e-02,2.536074605486993150e-02
3.615934999999999945e+03,2.038105490318464774e-02,3.064087979811924711e-02
3.617862999999999829e+03,2.077304689990100428e-02,2.426890195282283003e-02
3.619791999999999916e+03,2.117447614952894241e-02,1.889324850426632452e-02
3.621719999999999800e+03,2.158492644755938272e-02,2.951686269627984416e-02
3.623648999999999887e+03,2.200482357230804098e-02,3.438403723836591652e-02
3.625577000000000226e+03,2.243373217165256506e-02,2.931396822256582269e-02
3.627505999999999858e+03,2.287209717152549615e-02,1.501479254847870592e-02
3.629434000000000196e+03,2.331946407218055128e-02,2.684275946014391678e-03
3.631362999999999829e+03,2.377629694717420250e-02,1.969231722446229682e-02
3.633291000000000167e+03,2.424212214914511776e-02,2.500330390968441563e-02
3.635219999999999800e+03,2.471742289925948910e-02,2.765849947009257903e-02
3.637148000000000138e+03,2.520170640254093541e-02,3.107899712520545421e-02
3.639077000000000226e+03,2.569547502777780323e-02,3.182297235926334622e-02
3.641005000000000109e+03,2.619821683237510968e-02,3.121864357397274858e-02
3.642934000000000196e+03,2.671045333272914490e-02,2.865344032945627006e-02
3.644862000000000080e+03,2.723165343864053511e-02,2.584476423041781601e-02
3.646791000000000167e+03,2.776235781411529047e-02,6.801980606990110090e-03
3.648719000000000051e+03,2.830201622133898809e-02,-1.737914146140795424e-02
3.650648000000000138e+03,2.885118847193979263e-02,-9.470313105519156949e-03
3.652576000000000022e+03,2.940930518047579767e-02,1.769167531078030819e-02
3.654505000000000109e+03,2.997694530619376962e-02,2.052694633436003002e-02
3.656432999999999993e+03,3.055352031604563479e-02,1.599100611678583306e-02
3.658362000000000080e+03,3.113962831688787958e-02,2.444715021338605965e-02
