baseline wavenumber (cm-1),baseline absorbance (cm-1),baseline-subtracted absorbance (cm-1)
3199.379,0.2036439907,1.37667655054e-14
3201.308,0.201660252991,7.78446537311e-05
3203.236,0.19968738937,0.000885743148185
3205.165,0.197723353298,0.00351489596963
3207.093,0.1957701811,0.00507233380953
3209.021,0.193826852062,0.00708894698814
3210.95,0.191892365891,0.00794893603943
3212.878,0.189968728277,0.0082451603314
3214.807,0.188053943743,0.00771225457862
3216.736,0.186149012583,0.00738277757191
3218.664,0.184254914657,0.00819479726092
3220.593,0.182369685133,0.00983844182535
3222.521,0.180495278631,0.00981504179784
3224.449,0.178630715288,0.00943205636913
3226.378,0.176775035666,0.00953801396519
3228.306,0.174930163747,0.0108638320081
3230.235,0.173094185762,0.0123278298046
3232.164,0.17126806115,0.0128318074439
3234.092,0.169452728919,0.0115990248462
3236.021,0.167646305944,0.0120878495192
3237.949,0.165850665137,0.0123045961588
3239.877,0.164064867489,0.0132680952118
3241.806,0.162287994416,0.0145769606026
3243.734,0.160521888192,0.015650152645
3245.663,0.158764716756,0.0165926066038
3247.592,0.157017398693,0.0167903441556
3249.52,0.155280832157,0.0169520597867
3251.448,0.15355410878,0.0170220561847
3253.377,0.151836340619,0.0163174044532
3255.305,0.150129308666,0.0176504345866
3257.234,0.148431242142,0.0184099587071
3259.162,0.146743901613,0.018211622495
3261.091,0.145065536726,0.0184697912838
3263.02,0.143397025211,0.0186842443731
3264.948,0.141739224371,0.0183295110988
3266.876,0.140091266689,0.0192815221513
3268.805,0.138452305077,0.019748442927
3270.733,0.136824038819,0.0202046683478
3272.662,0.135204778843,0.0207145580615
3274.591,0.133595372241,0.0225620117684
3276.519,0.131996645671,0.0218303026761
3278.448,0.130406940706,0.0225557601941
3280.376,0.12882790556,0.0231517770439
3282.304,0.127258713574,0.0212078789665
3284.233,0.12569855851,0.021333686512
3286.161,0.124149057947,0.023684763947
3288.09,0.12260860452,0.0244494163023
3290.019,0.121078004466,0.0254897707283
3291.947,0.119558043592,0.0265725537999
3293.875,0.118047925877,0.0266624754166
3295.804,0.116546875725,0.0267382753921
3297.732,0.115056449434,0.0269985389419
3299.661,0.113575100919,0.0277354216732
3301.589,0.112104366051,0.0294244927379
3303.518,0.110642719173,0.0294234892571
3305.447,0.109190925668,0.0297118338592
3307.375,0.107749730489,0.0296787542985
3309.303,0.106318378469,0.0304096110185
3311.232,0.104896134865,0.0309721558453
3313.16,0.103484474269,0.0305011721473
3315.089,0.102081932303,0.0303950716393
3317.017,0.100689963131,0.0323637111845
3318.946,0.0993071228014,0.0327049059058
3320.875,0.0979341358447,0.0311338920538
3322.803,0.0965717063609,0.03045598999
3324.731,0.0952191200363,0.0328926761832
3326.66,0.0938756829814,0.0346293205565
3328.588,0.0925427880806,0.0350494488546
3330.517,0.0912190526629,0.0340589216624
3332.445,0.0899058491858,0.0339969103411
3334.374,0.0886018154053,0.0346646356207
3336.302,0.0873083033521,0.0358651526269
3338.231,0.0860239712087,0.0355311687893
3340.159,0.0847501505793,0.0361686809178
3342.088,0.0834855200731,0.0370284797248
3344.016,0.0822313908674,0.0374390832051
3345.945,0.0809864619984,0.0363884495552
3347.873,0.0797520242166,0.0353788764202
3349.802,0.0785267969848,0.0362154450045
3351.73,0.0773120506267,0.0390025152279
3353.659,0.0761065250321,0.0404127310075
3355.587,0.0749114700978,0.0408456308827
3357.516,0.0737256461404,0.0394639828903
3359.444,0.0725502826299,0.0406297436513
3361.373,0.0713841603096,0.0444755384673
3363.302,0.070227891362,0.044560342743
3365.23,0.0690820675399,0.0424912671412
3367.158,0.067946086877,0.0415242456814
3369.087,0.0668193678311,0.0398530267914
3371.015,0.065703078592,0.0398523646507
3372.944,0.0645960611832,0.041228764451
3374.872,0.0634994633679,0.042237421298
3376.801,0.0624121475964,0.0420546471069
3378.729,0.0613352412049,0.0414212532862
3380.658,0.0602676270705,0.0405875230356
3382.586,0.0592104121028,0.0409609211631
3384.515,0.0581624996057,0.0414427768525
3386.443,0.0571249760617,0.0424216730842
3388.372,0.0560967652017,0.0416678158151
3390.3,0.0550789330816,0.041161337817
3392.229,0.0540704238588,0.0424665214561
3394.157,0.0530722831624,0.0442369253689
3396.086,0.0520834755768,0.0454632746506
3398.014,0.0511050263043,0.0461799226495
3399.943,0.0501359203558,0.0445421348347
3401.871,0.0491771625071,0.0455089792093
3403.8,0.0482277581958,0.0478780742109
3405.728,0.0472886917708,0.0499538029224
3407.657,0.0463589890968,0.0494966664172
3409.585,0.0454396140956,0.047779833999
3411.514,0.0445296130587,0.0467561445477
3413.442,0.0436299294813,0.0480930059276
3415.371,0.0427396300816,0.0473973354495
3417.299,0.041859637928,0.0456219146849
3419.228,0.0409890401655,0.0475644825273
3421.156,0.0401287394357,0.0491444840557
3423.085,0.0392778433104,0.0463397650996
3425.013,0.0384372340044,0.0455726719898
3426.942,0.0376060395162,0.047411649759
3428.87,0.036785121634,0.0483018085187
3430.799,0.035973628783,0.0475879804356
3432.727,0.0351724023246,0.0465101004552
3434.656,0.0343806111108,0.0443594070838
3436.584,0.0335990760762,0.0439512120063
3438.513,0.0328269864996,0.0439146490002
3440.441,0.0320651428887,0.0448953342163
3442.37,0.0313127549493,0.046197100504
3444.298,0.0305706027623,0.0457050466869
3446.227,0.0298379164601,0.046002576818
3448.155,0.0291154556968,0.0455145857467
3450.084,0.0284024710317,0.0445541649735
3452.012,0.0276997016922,0.0469485344343
3453.941,0.0270064186644,0.0485000000155
3455.869,0.0263233407487,0.0491588183537
3457.798,0.025649759358,0.0478527171405
3459.726,0.0249863728661,0.0471292644532
3461.655,0.0243324931127,0.0475951324812
3463.583,0.0236887980445,0.0497388780901
3465.512,0.0230546199283,0.0499151566815
3467.44,0.0224306162839,0.0507226233805
3469.369,0.0218161398048,0.0518692943405
3471.297,0.0212118275843,0.0542723531496
3473.226,0.0206170527424,0.0547407760254
3475.154,0.0200324319456,0.0556326848036
3477.083,0.0194573587409,0.0568900586249
3479.011,0.0188924293679,0.0577147676401
3480.94,0.0183370578004,0.0580497813788
3482.868,0.0177918198512,0.0603209871841
3484.797,0.0172561499208,0.0619549084032
3486.725,0.0167306033955,0.0639345133538
3488.654,0.0162146351023,0.0631470347653
3490.582,0.0157087800007,0.0618561649099
3492.511,0.0152125133447,0.0609302138361
3494.439,0.0147263496669,0.0604692431765
3496.368,0.0142497846481,0.059882935457
3498.296,0.0137833123941,0.0600739604251
3500.225,0.0133264490125,0.0596680925826
3502.153,0.0128796681822,0.0623528194353
3504.082,0.0124425064378,0.0643314751653
3506.01,0.0120154170314,0.0656197795723
3507.939,0.0115979569241,0.0674842223946
3509.867,0.0111905589415,0.0738690791865
3511.796,0.0107928004714,0.0764729429835
3513.724,0.0104050939126,0.0761909841224
3515.653,0.0100270370797,0.0775096049905
3517.581,0.00965902194463,0.0802666830993
3519.51,0.00930066674894,0.0830747502125
3521.438,0.00895234303767,0.0889062438419
3523.367,0.00861368947916,0.0942924057397
3525.295,0.00828505719168,0.0937204012133
3527.224,0.00796610527036,0.0926757627171
3529.152,0.00765716440667,0.0922629811508
3531.081,0.00735791412253,0.0882273481842
3533.009,0.00706866468263,0.083829445092
3534.938,0.00678911603568,0.081218060756
3536.866,0.00651955801957,0.0807396151332
3538.795,0.0062597110098,0.0777628301809
3540.723,0.00600984441748,0.0782896602828
3542.652,0.00576969904489,0.080551437112
3544.58,0.00553952387637,0.0806406034864
3546.509,0.00531908014097,0.0766237076888
3548.437,0.00510859639623,0.072795982599
3550.366,0.00490785429801,0.0719581115364
3552.294,0.00471706197707,0.0751272724008
3554.223,0.00453602151604,0.0767866308644
3556.151,0.00436492061888,0.0824454503505
3558.08,0.00420358179504,0.0945419958862
3560.008,0.00405217232167,0.110151304884
3561.937,0.00391053513501,0.122174575549
3563.865,0.00377881708543,0.129405252459
3565.794,0.00365688153596,0.13390907419
3567.722,0.00354485491017,0.137466466226
3569.651,0.00344262099788,0.14045508445
3571.579,0.00335028579589,0.146032105794
3573.508,0.00326775352078,0.140325696393
3575.436,0.00319510974258,0.12175232784
3577.365,0.00313227910466,0.099636850583
3579.293,0.00307932675024,0.0831609441484
3581.222,0.00303619774951,0.0728447281577
3583.15,0.00300293681888,0.0683409426919
3585.079,0.00297950945533,0.0660450533669
3587.007,0.0029659399485,0.0706128531375
3588.936,0.00296221422213,0.0770109991611
3590.864,0.00296833613909,0.082470357887
3592.793,0.00298431204991,0.0948560801466
3594.721,0.00301012539066,0.11700402603
3596.65,0.00304580293866,0.136631746844
3598.578,0.0030913077032,0.142434821883
3600.507,0.00314668688839,0.125121785769
3602.435,0.00321188307672,0.0895602790581
3604.364,0.00328696389909,0.0634000875514
3606.292,0.00337185151121,0.0532313022339
3608.221,0.00346663397077,0.0434640240703
3610.149,0.00357121300668,0.035321438363
3612.078,0.00368569710342,0.0338999695296
3614.006,0.00380996756312,0.034567673193
3615.935,0.00394415329705,0.0342560892987
3617.863,0.00408811518054,0.0338483045102
3619.792,0.00424200255165,0.0319376194033
3621.72,0.00440565585893,0.0306706607286
3623.649,0.00457924486723,0.0292274871655
3625.577,0.0047625895983,0.0291902053072
3627.506,0.00495588024378,0.0288771329979
3629.434,0.00515891639865,0.0338954654875
3631.363,0.00537190868131,0.031948418823
3633.291,0.00559463625996,0.0294478180006
3635.22,0.00582733017981,0.0262175500385
3637.148,0.00606974918226,0.0243527717922
3639.077,0.00632214473929,0.0248099688764
3641.005,0.00658425516553,0.0249855416605
3642.934,0.00685635235975,0.022887911261
3644.862,0.00713815420977,0.0202711250786
3646.791,0.00742995304117,0.020738954267
3648.719,0.00773144631499,0.0259312444765
3650.648,0.00804294678358,0.0258123044041
3652.576,0.00836413148119,0.0177831443704
3654.505,0.00869533358696,0.0121593111113
3656.433,0.00903620970836,0.0131557441984
3658.362,0.00938711345132,0.0142103797257
3660.29,0.00974768099651,0.013550105317
3662.219,0.0101182863766,0.0109723837942
3664.147,0.0104985453456,0.00972080166741
3666.076,0.010888852363,0.00862140741669
3668.004,0.0112888027557,0.00947992260564
3669.933,0.0116988114102,0.0134088404648
3671.861,0.0121184532268,0.01213455395
3673.79,0.0125481635185,0.0112701928951
3675.718,0.0129874967588,0.0109930955792
3677.647,0.0134369086877,0.00556389996486
3679.575,0.0138959333519,0.00407940274436
3681.504,0.0143650469179,0.00318321953309
3683.432,0.0148437630059,0.00280760664944
3685.361,0.0153325782091,0.00255026824798
3687.289,0.0158309857208,0.00235611627047
3689.218,0.0163395025613,0.00424879219259
3691.146,0.0168576014968,0.00417343054607
3693.075,0.0173858199744,0.00289417598233
3695.003,0.0179236103337,0.00339348256025
3696.932,0.0184715304485,0.0041995501135
3698.86,0.0190290122316,0.0036420683304
