baseline wavenumber (cm-1),baseline absorbance (cm-1),baseline-subtracted absorbance (cm-1)
3199.379,0.129563833013,1.93178806285e-14
3201.308,0.127875235136,0.00273782460318
3203.236,0.126197358345,0.0043075441108
3205.165,0.124528462105,0.00575254466699
3207.093,0.122870276739,0.00396688084746
3209.021,0.121221934531,0.00241801290643
3210.95,0.119582588193,0.00331643131582
3212.878,0.117953937409,0.00684844811596
3214.807,0.116334292708,0.00895075732728
3216.736,0.11472450138,0.00665374586588
3218.664,0.113125390284,0.00627721762032
3220.593,0.111535300593,0.00860874064828
3222.521,0.109955880921,0.00872146669813
3224.449,0.108386304409,0.00856002127582
3226.378,0.10682576462,0.00580993739202
3228.306,0.105275879531,0.00454470067732
3230.235,0.103735041379,0.00642618373007
3232.164,0.102204056599,0.00880119964291
3234.092,0.100683711199,0.00863651522407
3236.021,0.0991724280561,0.00809432621457
3237.949,0.0976717740797,0.00993865753863
3239.877,0.0961809632625,0.0120647660411
3241.806,0.0946992300217,0.00940518724303
3243.734,0.0932281106283,0.008523127621
3245.663,0.0917660790247,0.00918257153632
3247.592,0.0903139007937,0.0123920529109
3249.52,0.0888723210886,0.0132074322723
3251.448,0.0874405845428,0.013274567585
3253.377,0.0860179562136,0.0139603112483
3255.305,0.0846059110915,0.0141214719066
3257.234,0.0832029843995,0.013975323495
3259.162,0.0818106307012,0.0147283362451
3261.091,0.0804274056464,0.0141091353422
3263.02,0.0790540339641,0.0151266998881
3264.948,0.0776912199542,0.0155181199831
3266.876,0.0763382491036,0.0158703832628
3268.805,0.0749944273231,0.0186879743751
3270.733,0.0736611478962,0.0193510829741
3272.662,0.0723370277529,0.0151313842556
3274.591,0.0710227609822,0.0137594082283
3276.519,0.0697190212437,0.0154598931402
3278.448,0.0684244561102,0.0175257106744
3280.376,0.0671404077954,0.0173971440089
3282.304,0.0658662026399,0.0163601190016
3284.233,0.0646011874082,0.0166289753331
3286.161,0.0633466736764,0.0156890081188
3288.09,0.0621013600819,0.013665343648
3290.019,0.06086589986,0.0157357376615
3291.947,0.0596409258166,0.0162521298794
3293.875,0.0584257949324,0.0187863752889
3295.804,0.0572198846123,0.0211056991338
3297.732,0.0560244451519,0.0222910304369
3299.661,0.0548382364689,0.0246796044287
3301.589,0.0536624884323,0.0230564037136
3303.518,0.0524959813865,0.0183111549725
3305.447,0.0513393277133,0.0178424169546
3307.375,0.0501931193651,0.0211108329244
3309.303,0.0490567541761,0.0234505742379
3311.232,0.0479296504047,0.0235036862981
3313.16,0.0468129766395,0.0223712950678
3315.089,0.0457055745052,0.0200757860528
3317.017,0.0446085921638,0.0214724752576
3318.946,0.0435208916667,0.0226501383545
3320.875,0.0424430445423,0.0230851066758
3322.803,0.0413756018892,0.0220970555453
3324.731,0.0403180023954,0.0241649653596
3326.66,0.0392697051727,0.02654602312
3328.588,0.0382317971026,0.0263967281172
3330.517,0.0372032015171,0.0255143765684
3332.445,0.0361849848709,0.0289064939525
3334.374,0.0351760909225,0.0273898648037
3336.302,0.0341775657001,0.0262980231001
3338.231,0.0331883733889,0.0298632792948
3340.159,0.0322095395903,0.0295300742781
3342.088,0.0312400489163,0.0254303240747
3344.016,0.0302809065414,0.0272082271895
3345.945,0.0293311175047,0.0312167446201
3347.873,0.0283916665536,0.0334935047797
3349.802,0.027461579154,0.0305971492398
3351.73,0.0265418196267,0.0311317879747
3353.659,0.0256314338643,0.0329706079835
3355.587,0.0247313657608,0.0330655613594
3357.516,0.0238406816355,0.0310061797816
3359.444,0.0229603049558,0.0313755891107
3361.373,0.0220893224678,0.0337789682428
3363.302,0.0212281933523,0.0350626183327
3365.23,0.020377356361,0.0364289713455
3367.158,0.0195363625289,0.0343987431014
3369.087,0.0187047833152,0.033020679133
3371.015,0.0178834809068,0.0373864068926
3372.944,0.0170716033304,0.0364485624434
3374.872,0.0162699923458,0.0351254387671
3376.801,0.0154778164065,0.0361859862823
3378.729,0.0146958968457,0.037585514253
3380.658,0.0139234225436,0.0363601112682
3382.586,0.0131611944067,0.0395639647968
3384.515,0.0124084217417,0.0405699468017
3386.443,0.0116658850285,0.0379924592553
3388.372,0.0109328140008,0.0360589983918
3390.3,0.0102099687114,0.0395919114059
3392.229,0.00949659932085,0.0379212719012
3394.157,0.00879344545524,0.0382782213799
3396.086,0.00809977770187,0.0389198321233
3398.014,0.00741631526005,0.0402785194716
3399.943,0.00674234914387,0.0422513837986
3401.871,0.00607857812584,0.0443040156273
3403.8,0.00542431364684,0.0476667608503
3405.728,0.00478023405261,0.045210163198
3407.657,0.00414567121079,0.0439691574559
3409.585,0.00352128304035,0.0481450466877
3411.514,0.00290642183571,0.0483924763751
3413.442,0.00230172508906,0.0472605917006
3415.371,0.00170656552161,0.0494599158288
3417.299,0.00112156019875,0.0505068639395
3419.228,0.000546102268483,0.0467636116707
3421.156,-1.92116305868e-05,0.0440488285314
3423.085,-0.000574967923669,0.0411117110754
3425.013,-0.00112059039894,0.0426090165589
3426.942,-0.00165664505484,0.045562437029
3428.87,-0.00218257610633,0.0465194809886
3430.799,-0.00269892912504,0.0486506121332
3432.727,-0.00320516875274,0.0511092423401
3434.656,-0.00370182013427,0.0505500966935
3436.584,-0.00418836833817,0.0475028331112
3438.513,-0.00466531808252,0.0458489833003
3440.441,-0.00513217486263,0.0480751648556
3442.37,-0.00558942296979,0.047493294394
3444.298,-0.00603658832611,0.0458243170232
3446.227,-0.00647413479609,0.0455659168642
3448.155,-0.00690160872863,0.0506441539626
3450.084,-0.00731945356141,0.0522340396324
3452.012,-0.00772723607016,0.0488558118308
3453.941,-0.00812537926576,0.0469038084581
3455.869,-0.00851347035071,0.0513381949034
3457.798,-0.00889191190914,0.0552822889434
3459.726,-0.0092603115703,0.053022567711
3461.655,-0.00961905149153,0.0487932150415
3463.583,-0.00996775972891,0.050741033761
3465.512,-0.010306798013,0.0540655162986
3467.44,-0.0106358148265,0.0555094628605
3469.369,-0.0109551514734,0.0564145672219
3471.297,-0.0112644768632,0.0583427140006
3473.226,-0.0115641118729,0.0595161992074
3475.154,-0.0118537458389,0.0593034577564
3477.083,-0.0121336792114,0.062685584599
3479.011,-0.0124036217536,0.0641442464377
3480.94,-0.0126638534889,0.0610061156945
3482.868,-0.0129141046073,0.060251615979
3484.797,-0.0131546347054,0.063770221484
3486.725,-0.0133851944001,0.0630844767209
3488.654,-0.013606022861,0.0603875855821
3490.582,-0.0138168911318,0.0639432430979
3492.511,-0.0140180179556,0.0670545084034
3494.439,-0.0142091948026,0.0666270660247
3496.368,-0.0143906199892,0.0652078645055
3498.296,-0.0145621054125,0.067328202653
3500.225,-0.0147238289619,0.066653981595
3502.153,-0.0148756229613,0.0630207760999
3504.082,-0.0150176448735,0.0636484949696
3506.01,-0.0151497474492,0.0716189681103
3507.939,-0.0152720677242,0.0758062838366
3509.867,-0.0153844788761,0.0780090619146
3511.796,-0.015487097514,0.0785342015269
3513.724,-0.015579817242,0.0765921491939
3515.653,-0.0156627342427,0.0755828798002
3517.581,-0.015735762547,0.0791427169592
3519.51,-0.0157989779105,0.0827852308166
3521.438,-0.015852314791,0.0852736227865
3523.367,-0.0158958285173,0.0874459144366
3525.295,-0.015929473974,0.0880092273349
3527.224,-0.0159532860631,0.0825210612577
3529.152,-0.015967240096,0.0830121203143
3531.081,-0.0159713505479,0.0838567240443
3533.009,-0.0159656131571,0.0846470040395
3534.938,-0.0159500219718,0.0826663870784
3536.866,-0.0159245931571,0.080638532306
3538.795,-0.0158893003347,0.0807316130811
3540.723,-0.0158441800962,0.0829532471133
3542.652,-0.0157891856366,0.0817787742346
3544.58,-0.0157243739744,0.0735511201585
3546.509,-0.0156496778775,0.0678451696394
3548.437,-0.0155651747915,0.0701552890137
3550.366,-0.0154707770575,0.0709210954645
3552.294,-0.0153665825477,0.071752916319
3554.223,-0.0152524831765,0.0790091798307
3556.151,-0.0151285972429,0.0862869920675
3558.08,-0.0149947962345,0.0937712037954
3560.008,-0.0148512188771,0.103658961726
3561.937,-0.0146977162315,0.11522334041
3563.865,-0.0145344474504,0.120702445024
3565.794,-0.0143612431676,0.11327916493
3567.722,-0.0141782829626,0.105564111326
3569.651,-0.0139853770427,0.118283365519
3571.579,-0.0137827254139,0.128123673559
3573.508,-0.0135701178568,0.123995165871
3575.436,-0.0133477748043,0.106774945531
3577.365,-0.01311546561,0.0893931366905
3579.293,-0.0128734311336,0.0823937990705
3581.222,-0.0126214203021,0.0783951997421
3583.15,-0.012359694402,0.0725547818375
3585.079,-0.0120879819333,0.0659937739074
3587.007,-0.0118065646094,0.0580008433924
3588.936,-0.0115151505035,0.0659207908553
3590.864,-0.0112140417558,0.0834807960265
3592.793,-0.0109029260128,0.101440174572
3594.721,-0.0105821258412,0.122665922465
3596.65,-0.010251308461,0.142751055757
3598.578,-0.00991081686572,0.144567644926
3600.507,-0.00956029784831,0.119512789509
3602.435,-0.00920011482922,0.0903908557571
3604.364,-0.00882989417462,0.0708414174739
3606.292,-0.00845001973174,0.0537537698581
3608.221,-0.00806009743996,0.0405406392372
3610.149,-0.00766053157329,0.0363626441782
3612.078,-0.00725090764432,0.0323838299126
3614.006,-0.00683165035386,0.0301481367584
3615.935,-0.0064023247877,0.0320027493303
3617.863,-0.00596337607345,0.0262332638729
3619.792,-0.00551434887011,0.0170897051827
3621.72,-0.00505570873207,0.026514315828
3623.649,-0.00458697989155,0.0341563723913
3625.577,-0.00410864832972,0.0360428442258
3627.506,-0.00362021785201,0.031503569717
3629.434,-0.00312219486639,0.0121406927942
3631.363,-0.00261406275149,0.0192328841404
3633.291,-0.00209634834208,0.0231556832253
3635.22,-0.00156851459001,0.0233364312988
3637.148,-0.0010311087568,0.0291954673942
3639.077,-0.000483573367539,0.0282789842641
3641.005,7.35238894549e-05,0.0275237671244
3642.934,0.000640760915903,0.0257238403173
3644.862,0.00121754959669,0.0236955202507
3646.791,0.00180448826032,0.0101236427414
3648.719,0.0024009683649,-0.00143462852865
3650.648,0.00300760866571,-0.00300760866571
3652.576,0.00362378019408,0.0131405986597
3654.505,0.00425012213207,0.0216035117505
3656.433,0.00488598508423,0.0137408217489
3658.362,0.00553202865942,0.0171218680352
3660.29,0.00618758303537,0.0242475731357
3662.219,0.00685332824774,0.0259941396589
3664.147,0.00752857404747,0.0241342178256
3666.076,0.00821402089703,0.0198497615754
3668.004,0.00890895812056,0.0137029897214
3669.933,0.0096141066073,0.00323841537794
3671.861,0.0103287352546,0.00418657860367
3673.79,0.0110535853785,0.00475304557264
3675.718,0.0117879054497,-0.0108443089673
3677.647,0.0125324572108,-0.00263909827009
3679.575,0.0132864687057,0.00536712474426
3681.504,0.014050722104,0.00643699648495
3683.432,0.0148244250226,0.0101427234662
3685.361,0.0156083800581,0.0104888604149
3687.289,0.0164017744006,0.00135370927472
3689.218,0.0172054310733,-0.01552848778
3691.146,0.0180185168395,-0.00999466158835
3693.075,0.0188418751494,0.000285285469235
3695.003,0.0196746523395,0.00737932522044
3696.932,0.0205177122865,0.00980018926007
3698.86,0.0213701809003,0.00894772064621
