baseline wavenumber (cm-1),baseline absorbance (cm-1),baseline-subtracted absorbance (cm-1)
3199.379,0.184254017993,1.90958360236e-14
3201.308,0.182319815804,0.000990100298373
3203.236,0.180396462024,0.00106568292691
3205.165,0.178481961473,0.00144778683421
3207.093,0.176578299117,0.00165732202965
3209.021,0.17468447992,0.00178575155704
3210.95,0.17279952927,0.00296565823618
3212.878,0.170925401497,0.00480339664302
3214.807,0.169060152485,0.00499675644087
3216.736,0.167204756845,0.00523231987612
3218.664,0.16536016876,0.00476618320593
3220.593,0.163524474757,0.00435281221313
3222.521,0.161699578097,0.0043638000496
3224.449,0.159884524595,0.00472732216547
3226.378,0.158078380494,0.00488836366856
3228.306,0.156283018416,0.00585232980994
3230.235,0.154496575952,0.00664160255768
3232.164,0.152719986861,0.00773942888723
3234.092,0.150954164472,0.00808556058637
3236.021,0.149197277018,0.00857539052487
3237.949,0.147451146052,0.00933951401057
3239.877,0.145714858246,0.00995480717442
3241.806,0.143987520693,0.00878009277064
3243.734,0.142270924311,0.00972644756842
3245.663,0.140563288396,0.0112400068635
3247.592,0.138865505853,0.0119123168496
3249.52,0.137178449159,0.0120907310694
3251.448,0.135501235624,0.0129451406018
3253.377,0.133833002983,0.0129121703716
3255.305,0.132175480872,0.0133587352405
3257.234,0.130526949868,0.0130285944558
3259.162,0.128889119181,0.0130991553567
3261.091,0.127260289815,0.0127867131167
3263.02,0.125641313821,0.0134565331414
3264.948,0.124033022822,0.0136835444479
3266.876,0.122434574982,0.0148301576574
3268.805,0.12084514889,0.0154471790186
3270.733,0.119266392474,0.0167808126207
3272.662,0.117696668019,0.0176141578173
3274.591,0.116136796937,0.0177993195089
3276.519,0.114587580209,0.0167648912352
3278.448,0.113047410764,0.0169733109581
3280.376,0.11151788546,0.0174126714992
3282.304,0.109998203315,0.0180610304862
3284.233,0.108487583772,0.0173913205034
3286.161,0.106987593051,0.0182292269224
3288.09,0.105496675145,0.0188280999481
3290.019,0.104015610612,0.01865546995
3291.947,0.102545159579,0.0180395973194
3293.875,0.101084551706,0.0196882169183
3295.804,0.0996330370744,0.0211700560218
3297.732,0.0981921206247,0.0214844183422
3299.661,0.0967603076303,0.0208465861329
3301.589,0.0953390826044,0.021281255008
3303.518,0.0939269712473,0.0217047885829
3305.447,0.0925247132627,0.0234416265736
3307.375,0.0911330279252,0.0244436424478
3309.303,0.0897511857469,0.024029265077
3311.232,0.088378477664,0.0230432346578
3313.16,0.0870163269095,0.0238570178797
3315.089,0.0856633204639,0.0231186465835
3317.017,0.0843208611332,0.0232845164065
3318.946,0.0829875563247,0.0229706969857
3320.875,0.0816641048889,0.0234905499176
3322.803,0.0803511852465,0.0239523627167
3324.731,0.0790481087634,0.0255101647633
3326.66,0.0777542072293,0.0259297106925
3328.588,0.07647082217,0.0270119434219
3330.517,0.0751966222731,0.0268770661935
3332.445,0.0739329286375,0.0265431655705
3334.374,0.0726784303778,0.0253929332126
3336.302,0.071434428166,0.0255836654355
3338.231,0.0701996315435,0.0261604210189
3340.159,0.0689753207555,0.0270410544593
3342.088,0.0677602257702,0.0270583328066
3344.016,0.066555606406,0.0276731411933
3345.945,0.0653602130578,0.0275666038834
3347.873,0.0641752851174,0.0286100176219
3349.802,0.0629995934065,0.0292646338249
3351.73,0.0618343568899,0.0298683622044
3353.659,0.0606783668161,0.0295920263912
3355.587,0.0595328217233,0.0291839477097
3357.516,0.0583965332867,0.0297198116037
3359.444,0.0572706796176,0.0311413288732
3361.373,0.0561540928182,0.0313916465935
3363.302,0.0550473593914,0.031026126912
3365.23,0.0539510454108,0.0297384319975
3367.158,0.0528645745893,0.0313869163639
3369.087,0.0517873910643,0.0309726412818
3371.015,0.0507206116666,0.030314969047
3372.944,0.0496631297787,0.0305931120084
3374.872,0.0486160418049,0.0317776709213
3376.801,0.0475782615542,0.0319496875007
3378.729,0.0465508650041,0.0320284334897
3380.658,0.0455327863906,0.0327270943331
3382.586,0.0445250812644,0.033531625498
3384.515,0.0435267042881,0.0329930571594
3386.443,0.0425386905856,0.0336565990131
3388.372,0.0415600152464,0.0335011391051
3390.3,0.0405916929677,0.0338382069615
3392.229,0.0396327192658,0.0348911865262
3394.157,0.0386840884109,0.0361278998636
3396.086,0.0377448163461,0.0359739747183
3398.014,0.036815876915,0.0368660193753
3399.943,0.0358963064874,0.0374267502193
3401.871,0.0349870584801,0.0384011958411
3403.8,0.0340871896897,0.0385191986657
3405.728,0.0331976331062,0.0400379880401
3407.657,0.032317465953,0.0399801181974
3409.585,0.0314476007932,0.0394808334532
3411.514,0.0305871352772,0.038582479602
3413.442,0.0297369615413,0.0390273162309
3415.371,0.0288961976624,0.0380005980517
3417.299,0.0280657153503,0.0382544099909
3419.228,0.0272446531086,0.0390441369449
3421.156,0.0264338622203,0.0394182554387
3423.085,0.0256325016158,0.0387342223304
3425.013,0.0248414021512,0.0391396955947
3426.942,0.0240597431839,0.0394543576955
3428.87,0.0232883351431,0.040557818703
3430.799,0.022526377813,0.0409786257248
3432.727,0.021774661196,0.041785431799
3434.656,0.0210324055031,0.0418408382045
3436.584,0.0203003803099,0.0430014492665
3438.513,0.0195778262542,0.0421451091547
3440.441,0.0188654924848,0.0415009282167
3442.37,0.0181626400662,0.0416412616825
3444.298,0.0174699977206,0.0431203186647
3446.227,0.0167868469392,0.0432707695573
3448.155,0.0161138960174,0.0444895609724
3450.084,0.0154504468732,0.0453794328397
3452.012,0.0147971873752,0.0454711842007
3453.941,0.0141534398682,0.0445127887783
3455.869,0.0135198717939,0.0448355310161
3457.798,0.0128958259241,0.0447322949694
3459.726,0.0122819492737,0.0461482539003
3461.655,0.0116776050411,0.0465853081299
3463.583,0.0110834198144,0.0482762284217
3465.512,0.0104987772189,0.0497332049907
3467.44,0.00992428341607,0.0507408333331
3469.369,0.00935934245782,0.051009605283
3471.297,0.00880454007872,0.0526869185284
3473.226,0.00825930075766,0.0532043604169
3475.154,0.00772418980236,0.0533543505797
3477.083,0.00719865211848,0.0532420635391
3479.011,0.00668323258697,0.0551498817363
3480.94,0.00617739654027,0.0565012651397
3482.868,0.00568166843255,0.0589706109569
3484.797,0.00519553402303,0.0598059822006
3486.725,0.00471949733911,0.0596836159733
3488.654,0.00425306456678,0.0589871052503
3490.582,0.00379671930664,0.059835647013
3492.511,0.0033499881715,0.059531342062
3494.439,0.00291333433515,0.0594959449532
3496.368,0.00248630483719,0.0590749000552
3498.296,0.00206934242463,0.0592709992311
3500.225,0.00166201456386,0.0599143525644
3502.153,0.00126474357509,0.0626926000012
3504.082,0.0008771173515,0.0629038388802
3506.01,0.000499537786528,0.0643079018172
3507.939,0.000131613200121,0.0675515971506
3509.867,-0.000226274941063,0.0723939692704
3511.796,-0.000574497890284,0.0734871634114
3513.724,-0.000912694607681,0.0733154035938
3515.653,-0.00124121591971,0.0728332506918
3517.581,-0.00155972121332,0.0739957871185
3519.51,-0.00186854088817,0.076251437886
3521.438,-0.00216735475798,0.0802740968989
3523.367,-0.00245647279565,0.0830240458271
3525.295,-0.00273559524167,0.0849679817776
3527.224,-0.00300501164216,0.0828579379537
3529.152,-0.00326444266438,0.0821975266632
3531.081,-0.00351415742768,0.0804923238079
3533.009,-0.00375389702612,0.0787483375396
3534.938,-0.00398391015224,0.0762390400421
3536.866,-0.00420395832689,0.073370035351
3538.795,-0.00441426981581,0.0716405914574
3540.723,-0.00461462656668,0.0724504700924
3542.652,-0.00480523641842,0.0716353182945
3544.58,-0.00498590174549,0.0705059664377
3546.509,-0.00515680996005,0.0668893481183
3548.437,-0.00531778386333,0.0662017422177
3550.366,-0.0054689904407,0.0679313375548
3552.294,-0.00561027292019,0.0701842140907
3554.223,-0.00574177786038,0.0733340147956
3556.151,-0.00586336891607,0.080030456756
3558.08,-0.00597517221908,0.0880650337373
3560.008,-0.00607707185099,0.0991777490975
3561.937,-0.00616917351681,0.10938659998
3563.865,-0.00625138172492,0.116724948894
3565.794,-0.00632378175355,0.117596904163
3567.722,-0.00638629853788,0.115915258408
3569.651,-0.00643899692933,0.118979682262
3571.579,-0.00648182228987,0.122039792572
3573.508,-0.00651481904413,0.118485909714
3575.436,-0.00653795298088,0.106206405422
3577.365,-0.00655124809796,0.0899314158934
3579.293,-0.00655469061091,0.0781482416066
3581.222,-0.00654828409081,0.0715305948156
3583.15,-0.00653203517997,0.0693395758653
3585.079,-0.00650592702269,0.0684760068771
3587.007,-0.00646998668806,0.0696181722738
3588.936,-0.00642417689359,0.0729853817859
3590.864,-0.00636854513517,0.0813559099386
3592.793,-0.00630303370351,0.0936319531415
3594.721,-0.0062277105213,0.113524283856
3596.65,-0.00614249745246,0.131679240604
3598.578,-0.00604748284646,0.136743934883
3600.507,-0.00594256814043,0.119145337776
3602.435,-0.00582786211064,0.0891716405398
3604.364,-0.00570324576743,0.0654404336781
3606.292,-0.00556884831385,0.0533233211734
3608.221,-0.00542453033345,0.047483561972
3610.149,-0.00527044145608,0.0445805597215
3612.078,-0.0051064218385,0.0404334207266
3614.006,-0.00493264153734,0.0391684648468
3615.935,-0.00474892028258,0.0385743524063
3617.863,-0.00455544855762,0.0365133986233
3619.792,-0.00435202566567,0.0337839472264
3621.72,-0.00413886251693,0.0340251457475
3623.649,-0.0039157379878,0.0335882336918
3625.577,-0.00368288341526,0.0325320697086
3627.506,-0.00344005724894,0.0277567458166
3629.434,-0.00318751125262,0.0243150761975
3631.363,-0.00292498344911,0.0270829739474
3633.291,-0.002652746029,0.0288626924558
3635.22,-0.00237051658831,0.0279315193175
3637.148,-0.0020785877444,0.0300999159563
3639.077,-0.00177665666653,0.0312343540283
3641.005,-0.00146503639883,0.0305664212164
3642.934,-0.00114340368378,0.0289175874501
3644.862,-0.000812091992287,0.028004551307
3646.791,-0.000470757640048,0.0251821697496
3648.719,-0.000119754524768,0.0211280432137
3650.648,0.000241281464657,0.0172402711483
3652.576,0.000611976003729,0.0185869525316
3654.505,0.000992713630339,0.0191371761907
3656.433,0.0013830995932,0.0187973310143
3658.362,0.00178353885699,0.017461381794
3660.29,0.00219361624364,0.0175481203378
3662.219,0.00261375714463,0.0172007581692
3664.147,0.00304352595506,0.0180506820708
3666.076,0.00348336849323,0.0170634828158
3668.004,0.00393282872746,0.0164714975639
3669.933,0.00439237290281,0.016266678952
3671.861,0.00486152456083,0.0162407699909
3673.79,0.00534077037337,0.0144550448495
3675.718,0.00582961345518,0.0106790290193
3677.647,0.0063285609049,0.0104337963174
3679.575,0.0068370954105,0.0103624396143
3681.504,0.00735574449741,0.00917513592309
3683.432,0.0078839704268,0.00944292737973
3685.361,0.00842232115089,0.00787253379705
3687.289,0.00897023850407,0.00525699287165
3689.218,0.00952829086535,0.00211377928526
3691.146,0.0100958996423,0.00468424793677
3693.075,0.0106736536408,0.00376736526147
3695.003,0.0112609538415,0.00386741975595
3696.932,0.0118584094772,0.00235871374125
3698.86,0.0124654011017,0.00175172211669
