baseline wavenumber (cm-1),baseline absorbance (cm-1),baseline-subtracted absorbance (cm-1)
3199.379,0.215308854746,8.54871728961e-15
3201.308,0.2133568306,0.00109854188571
3203.236,0.211415664102,0.00182010866693
3205.165,0.209483341593,0.00338686966749
3207.093,0.207561866519,0.00366950920161
3209.021,0.205650234603,0.00407659244603
3210.95,0.203747461996,0.00461951465368
3212.878,0.201855521505,0.0062744188568
3214.807,0.199972450535,0.00591802758051
3216.736,0.198099232938,0.00593902643713
3218.664,0.196236832135,0.00699388655483
3220.593,0.194383316175,0.00804324806214
3222.521,0.192540606796,0.00829104184449
3224.449,0.190707740576,0.0106116266534
3226.378,0.188883774518,0.0116587808244
3228.306,0.187070599721,0.0120220920808
3230.235,0.1852663353,0.011709405122
3232.164,0.183471924252,0.0124464018371
3234.092,0.181688289144,0.0132828520667
3236.021,0.179913579733,0.0144186753969
3237.949,0.178149636049,0.0143435409449
3239.877,0.176395535524,0.0149281276721
3241.806,0.174650376015,0.0152454088838
3243.734,0.172915966914,0.0161259313984
3245.663,0.171190509041,0.0168466889775
3247.592,0.169474904542,0.0179089527312
3249.52,0.167770035129,0.0176479877155
3251.448,0.166075008875,0.018951171252
3253.377,0.164388954277,0.0195855731662
3255.305,0.162713619448,0.020288098939
3257.234,0.161047266487,0.0204405026426
3259.162,0.159391623081,0.0210362046758
3261.091,0.157744971758,0.0209857974731
3263.02,0.156108173807,0.0219813844668
3264.948,0.154482070089,0.0219672375021
3266.876,0.152865809531,0.0225906243113
3268.805,0.151258561482,0.0233980138746
3270.733,0.149661992347,0.0244449014161
3272.662,0.148074445935,0.0241620849453
3274.591,0.146496752896,0.0242069264735
3276.519,0.14492972345,0.0246732281323
3278.448,0.143371732047,0.0253529217482
3280.376,0.141824394025,0.0251334549591
3282.304,0.140286899162,0.0255468216508
3284.233,0.138758457661,0.0260674798701
3286.161,0.137240654222,0.0272300321218
3288.09,0.135731914359,0.0272763743301
3290.019,0.134233027868,0.0272302795209
3291.947,0.132744764117,0.0276918577366
3293.875,0.131266343525,0.0288864412719
3295.804,0.129797006937,0.0289433650437
3297.732,0.128338277769,0.0290027714582
3299.661,0.126888642817,0.0300729967263
3301.589,0.125449605073,0.0308835092506
3303.518,0.124019671758,0.0310053964719
3305.447,0.122599591816,0.0319029857639
3307.375,0.12119009376,0.0322411202293
3309.303,0.119790438864,0.0325150296494
3311.232,0.118399908824,0.0319540788444
3313.16,0.117019945351,0.0321827232028
3315.089,0.115649116948,0.0324868883084
3317.017,0.114288844899,0.0337004404545
3318.946,0.112937718133,0.0343279747812
3320.875,0.11159644474,0.0353358306064
3322.803,0.110265712379,0.0350737195424
3324.731,0.108944823178,0.035381569221
3326.66,0.107633099686,0.0356961735372
3328.588,0.106331901909,0.0361470225835
3330.517,0.105039880054,0.0365620607118
3332.445,0.103758373701,0.037990438591
3334.374,0.102486053483,0.037485441513
3336.302,0.101224238553,0.0373049234804
3338.231,0.0999716199736,0.038256369514
3340.159,0.0987294964672,0.039057474118
3342.088,0.0974965795246,0.0387864488793
3344.016,0.0962741474421,0.0394384776464
3345.945,0.0950609321366,0.0401519456558
3347.873,0.0938581914779,0.0415875782583
3349.802,0.0926646778096,0.042489926456
3351.73,0.0914816285747,0.043660896443
3353.659,0.0903078165436,0.0441151087572
3355.587,0.0891444587324,0.0450835812959
3357.516,0.0879903483385,0.0453380151508
3359.444,0.0868466819511,0.0464037476455
3361.373,0.0857122731944,0.0461390863527
3363.302,0.0845877178103,0.0458781166181
3365.23,0.0834735911113,0.0446349199571
3367.158,0.0823693075715,0.044228286687
3369.087,0.0812743020892,0.044394857923
3371.015,0.0801897099732,0.0451399675766
3372.944,0.079114406128,0.044188484805
3374.872,0.0780495054358,0.0446134886004
3376.801,0.0769939032278,0.0450284863406
3378.729,0.0759486939594,0.0464010482826
3380.658,0.0749127933886,0.0472235151124
3382.586,0.073887275544,0.0476786296415
3384.515,0.0728710766104,0.0470436105422
3386.443,0.0718652501895,0.0481398544299
3388.372,0.0708687528931,0.0487274767642
3390.3,0.0698826178961,0.0499656081223
3392.229,0.0689058222368,0.0501300111807
3394.157,0.0679393786636,0.0507996792562
3396.086,0.0669822846415,0.0517818920491
3398.014,0.0660355324921,0.0528848152285
3399.943,0.0650981401072,0.0553309006287
3401.871,0.0641710793815,0.0576571830262
3403.8,0.0632533886338,0.0574936041894
3405.728,0.062346019332,0.0587639574193
3407.657,0.0614480302214,0.0599597833841
3409.585,0.0605603523434,0.0597890866539
3411.514,0.05968206487,0.0590722058264
3413.442,0.0588140784157,0.0598420420735
3415.371,0.0579554925796,0.0596682818063
3417.299,0.0571071975491,0.0610625184117
3419.228,0.0562683133501,0.0613045159231
3421.156,0.0554397097434,0.0612210099574
3423.085,0.0546205271817,0.0610847694928
3425.013,0.0538116149987,0.0634805612875
3426.942,0.0530121340742,0.065976696412
3428.87,0.052222913315,0.0674975961361
3430.799,0.0514431340276,0.0687745956802
3432.727,0.0506736046923,0.0701497552592
3434.656,0.0499135270421,0.071131656421
3436.584,0.0491636891305,0.0731801398395
3438.513,0.0484233131175,0.0741365777144
3440.441,0.0476931666297,0.0749420299739
3442.37,0.0469724922539,0.0750451464806
3444.298,0.0462620371899,0.0759447757081
3446.227,0.0455610644513,0.0763376518128
3448.155,0.0448703008111,0.0749907120263
3450.084,0.0441890297096,0.0750591760925
3452.012,0.0435179574932,0.0772392951096
3453.941,0.0428563880289,0.0783521937966
3455.869,0.0422050072363,0.0789043630255
3457.798,0.0415631394092,0.0789077490978
3459.726,0.0409314500404,0.0798349504448
3461.655,0.0403092838505,0.0802535888878
3463.583,0.0396972859055,0.0816935965367
3465.512,0.0390948213527,0.0839295393063
3467.44,0.0385025148315,0.0857638351129
3469.369,0.037919751916,0.0866721817745
3471.297,0.0373471368185,0.0882312014004
3473.226,0.0367840755402,0.0884879855131
3475.154,0.0362311518665,0.0895075017269
3477.083,0.0356877922253,0.0903749288906
3479.011,0.0351545599755,0.0916273059904
3480.94,0.0346309019715,0.0924751831392
3482.868,0.0341173611454,0.0926167943181
3484.797,0.0336134047786,0.0924859584075
3486.725,0.0331195553763,0.0931939996626
3488.654,0.0326353006467,0.0906402982616
3490.582,0.0321611426682,0.0899456500135
3492.511,0.0316965895758,0.0895183098481
3494.439,0.0312421230211,0.0894690869254
3496.368,0.0307972715658,0.0878596070352
3498.296,0.0303624964349,0.0882304480713
3500.225,0.0299373466168,0.0886624714363
3502.153,0.0295222629097,0.0872711263554
3504.082,0.0291168147288,0.0842659306467
3506.01,0.0287214224455,0.0876519223437
3507.939,0.0283356759018,0.0928178670073
3509.867,0.0279599750423,0.0965471006678
3511.796,0.0275939301358,0.0978641715523
3513.724,0.0272379207,0.0978563378666
3515.653,0.0268915774307,0.0982366445445
3517.581,0.0265552594187,0.101626839035
3519.51,0.0262286177866,0.104829049251
3521.438,0.0259119911984,0.109587806638
3523.367,0.0256050512035,0.111449229601
3525.295,0.0253081160391,0.112370646722
3527.224,0.0250208776813,0.110621950581
3529.152,0.0247436339407,0.107052636149
3531.081,0.0244760972201,0.10318007381
3533.009,0.0242185449034,0.100291765417
3534.938,0.0239707098199,0.0985873110029
3536.866,0.0237328489269,0.0951991231745
3538.795,0.0235047154807,0.0927110936773
3540.723,0.0232865460115,0.0928375316191
3542.652,0.0230781142025,0.0920713854437
3544.58,0.0228796361571,0.0896428544929
3546.509,0.0226909059852,0.0836374575041
3548.437,0.0225121193636,0.0805738505141
3550.366,0.0223430908289,0.0824044074022
3552.294,0.0221839956311,0.0828686173276
3554.223,0.0220346687336,0.0857094938056
3556.151,0.0218952649595,0.0958224142076
3558.08,0.0217656396992,0.107177552457
3560.008,0.021645927349,0.120113094181
3561.937,0.0215360037259,0.132048652091
3563.865,0.0214359827994,0.140973144867
3565.794,0.0213457608135,0.142825572452
3567.722,0.0212654313108,0.138947042155
3569.651,0.021194910962,0.148730693
3571.579,0.0211342728832,0.162204198763
3573.508,0.0210834541716,0.159648477497
3575.436,0.0210425075165,0.139995650777
3577.365,0.0210113904421,0.115875044411
3579.293,0.0209901352108,0.0962642365672
3581.222,0.0209787197736,0.082101589536
3583.15,0.0209771559661,0.0755515512006
3585.079,0.0209854421661,0.0752533125089
3587.007,0.0210035697824,0.0740006251029
3588.936,0.0210315576196,0.0731927423905
3590.864,0.0210693766596,0.0870068388463
3592.793,0.021117066134,0.101863677826
3594.721,0.0211745765979,0.116689367605
3596.65,0.0212419677094,0.132520136809
3598.578,0.0213191695971,0.138358531808
3600.507,0.0214062623458,0.118541377399
3602.435,0.0215031556572,0.085775778943
3604.364,0.0216099500431,0.0655212032976
3606.292,0.0217265347784,0.0579532893397
3608.221,0.0218530308015,0.0466684995735
3610.149,0.0219893069605,0.0398985935752
3612.078,0.0221355046208,0.040380163023
3614.006,0.0222914722036,0.0350444218629
3615.935,0.0224573715011,0.0348857498979
3617.863,0.0226330305077,0.0359408095813
3619.792,0.0228186314423,0.0283280379199
3621.72,0.0230139818727,0.0278430887833
3623.649,0.0232192844446,0.0324648861811
3625.577,0.0234343262987,0.0365238764709
3627.506,0.0236593305078,0.0379668192951
3629.434,0.0238940637857,0.0184661909398
3631.363,0.0241387696319,0.0206756951411
3633.291,0.0243931943337,0.0289474000259
3635.22,0.0246576018171,0.0270875715378
3637.148,0.0249317179427,0.0296434362067
3639.077,0.0252158270632,0.0279888631217
3641.005,0.0255096346126,0.0280468194458
3642.934,0.0258134453703,0.0247548352321
3644.862,0.0261269443435,0.0278879146477
3646.791,0.0264504567384,0.027938454613
3648.719,0.0267836471354,0.0125551782968
3650.648,0.0271268611675,-0.00206343248054
3652.576,0.0274797429882,0.00848179547332
3654.505,0.0278426586575,0.0210249750229
3656.433,0.028215231902,0.0139859204279
3658.362,0.0285978492085,0.0122544706136
3660.29,0.0289901138768,0.0163383506941
3662.219,0.0293924328205,0.0142992178416
3664.147,0.0298043889126,0.0128812979367
3666.076,0.0302264094935,0.0142637855939
3668.004,0.0306580570094,0.0176279027602
3669.933,0.0310997792274,0.00964145194614
3671.861,0.0315511181671,0.00711298776639
3673.79,0.0320125420223,0.0195089883527
3675.718,0.0324835723858,0.00186935392573
3677.647,0.0329646978782,-0.00653313010303
3679.575,0.0334554196655,0.00227914012427
3681.504,0.0339562467951,0.00616727488692
3683.432,0.0344666600061,0.00944888633977
3685.361,0.0349871887729,0.00910691817138
3687.289,0.0355172934078,0.0108910256057
3689.218,0.0360575238117,-0.00143000940761
3691.146,0.0366073198704,-0.00594063635677
3693.075,0.0371672519115,-0.00228799385027
3695.003,0.0377367393939,0.00514171001473
3696.932,0.0383163730723,0.00525372699847
3698.86,0.0389055519785,0.00466454809226
