baseline wavenumber (cm-1),baseline absorbance (cm-1),baseline-subtracted absorbance (cm-1)
3199.379,0.108876424128,1.82076576039e-14
3201.308,0.107276435642,0.00229300588982
3203.236,0.105687122308,0.0036624967598
3205.165,0.104106835459,0.00375679772732
3207.093,0.102537213549,0.00435381881326
3209.021,0.100977434797,0.00392820579849
3210.95,0.0994266978502,0.00376998908623
3212.878,0.0978866105225,0.00375209780208
3214.807,0.0963555752129,0.00578009264198
3216.736,0.0948343932759,0.00898261937524
3218.664,0.0933238456366,0.00974842667768
3220.593,0.0918223653368,0.00996557063864
3222.521,0.0903315091212,0.0105876213744
3224.449,0.0888504960649,0.0106343714825
3226.378,0.0873785656668,0.0112668526599
3228.306,0.0859172440343,0.0112778352975
3230.235,0.0844650152734,0.0107631946937
3232.164,0.0830226398851,0.011301117716
3234.092,0.081590857941,0.0126161735821
3236.021,0.0801681841899,0.0125119723768
3237.949,0.0787560936695,0.0115185970413
3239.877,0.0773538463083,0.0123459509937
3241.806,0.075960722459,0.0127112562927
3243.734,0.0745781665216,0.0142692508265
3245.663,0.0732047443095,0.0149251920853
3247.592,0.07184117547,0.0132797443595
3249.52,0.070488159221,0.0134193685626
3251.448,0.0691449861311,0.0163219181814
3253.377,0.0678109671934,0.0164477872625
3255.305,0.0664874855274,0.0172676692919
3257.234,0.0651731682268,0.0180063942251
3259.162,0.0638693779846,0.0178360808817
3261.091,0.0625747623212,0.0172179964682
3263.02,0.0612900000304,0.0180659096641
3264.948,0.0600157494766,0.0191968737149
3266.876,0.0587513420819,0.0205538931176
3268.805,0.0574961296929,0.0199935606685
3270.733,0.056251413722,0.0205344253777
3272.662,0.0550159029702,0.02142220425
3274.591,0.053790245591,0.0210797481184
3276.519,0.0525750693085,0.0208956093803
3278.448,0.0513691135664,0.0208084918016
3280.376,0.0501736287078,0.0214832525392
3282.304,0.0489879870083,0.0238298643931
3284.233,0.047811581168,0.0256748240882
3286.161,0.0466456308923,0.0268673347888
3288.09,0.0454889266892,0.0267917750652
3290.019,0.0443420758587,0.0261782987831
3291.947,0.0432056652714,0.0247673549285
3293.875,0.0420790978433,0.0260655166811
3295.804,0.0409617969146,0.0276892130805
3297.732,0.0398549209102,0.027872764838
3299.661,0.0387573216187,0.0286953239394
3301.589,0.0376701370382,0.0307023379741
3303.518,0.0365922393838,0.0308163717855
3305.447,0.0355241951021,0.0308349298018
3307.375,0.0344665502099,0.0305697956348
3309.303,0.033418748477,0.0301759953547
3311.232,0.032380254097,0.0302705462106
3313.16,0.0313521437878,0.0309851736093
3315.089,0.030333351045,0.0329863525966
3317.017,0.0293249321596,0.0351857968541
3318.946,0.028325841054,0.0359814910212
3320.875,0.027336603321,0.0346868816863
3322.803,0.026357724124,0.0345030433325
3324.731,0.0253886880862,0.0359029873174
3326.66,0.024429000255,0.0369185918328
3328.588,0.023479655641,0.0400955173512
3330.517,0.0225396694469,0.0405126825486
3332.445,0.0216100162567,0.0372870271486
3334.374,0.0206897316999,0.0351451742902
3336.302,0.0197797699334,0.0363179444721
3338.231,0.0188791870137,0.0379996135734
3340.159,0.0179889166711,0.0392725637231
3342.088,0.0171080353886,0.0388970670088
3344.016,0.0162374564698,0.0385084720967
3345.945,0.0153762768245,0.0390498782046
3347.873,0.0145253893294,0.0406951320937
3349.802,0.0136839113213,0.0428370224874
3351.73,0.01285271525,0.0439523452099
3353.659,0.0120309388791,0.041028402702
3355.587,0.0112194342316,0.0405422907981
3357.516,0.0104173594978,0.0413296874023
3359.444,0.00962554627417,0.0429249534812
3361.373,0.00884317317758,0.0435664864296
3363.302,0.0080706534536,0.0447091047067
3365.23,0.0073083799183,0.0446476555888
3367.158,0.00655594954221,0.0444068658628
3369.087,0.00581297972,0.0424224994161
3371.015,0.0050802407677,0.0427694132478
3372.944,0.00435697258267,0.0444334796435
3374.872,0.00364392505416,0.0454883179038
3376.801,0.00294035850632,0.0469603893793
3378.729,0.0022470024016,0.0463243263186
3380.658,0.00156313749093,0.0461030399047
3382.586,0.000889472810009,0.0479062216053
3384.515,0.000225309536532,0.0490764308703
3386.443,-0.000428663720605,0.0489678403474
3388.372,-0.0010731253569,0.0456722726275
3390.3,-0.00170740719025,0.0463771492745
3392.229,-0.00233216718935,0.0494332365959
3394.157,-0.00294675759891,0.0493785741922
3396.086,-0.00355181596083,0.0482813190013
3398.014,-0.00414671494659,0.0493647900147
3399.943,-0.00473207167133,0.0518845145315
3401.871,-0.0053072792333,0.0535679208773
3403.8,-0.00587293432086,0.0541646796204
3405.728,-0.00642845045904,0.0558937471669
3407.657,-0.00697440390941,0.0567898788517
3409.585,-0.0075102286238,0.0544533333977
3411.514,-0.00803648043699,0.0533328388629
3413.442,-0.00855261372759,0.0554792929755
3415.371,-0.00905916390359,0.0549601214768
3417.299,-0.0095556057704,0.0547796219862
3419.228,-0.0100424543092,0.0560038717972
3421.156,-0.0105192047522,0.05628281697
3423.085,-0.0109863516539,0.0565049788993
3425.013,-0.0114434106731,0.0582862148948
3426.942,-0.0118908559375,0.0573808258823
3428.87,-0.012328223533,0.0568546791142
3430.799,-0.0127559671602,0.056996898173
3432.727,-0.0131736433319,0.0573792769378
3434.656,-0.013581685322,0.0574091823514
3436.584,-0.0139796700698,0.0583188047591
3438.513,-0.0143680104227,0.0589643618591
3440.441,-0.0147463037468,0.0613283964287
3442.37,-0.0151149424625,0.0596106438674
3444.298,-0.0154735443628,0.0587051792268
3446.227,-0.0158224814413,0.0601965640582
3448.155,-0.0161613919178,0.0624984996273
3450.084,-0.0164906273591,0.0634487597419
3452.012,-0.0168098464118,0.0631497499555
3453.941,-0.017119380216,0.0628197366848
3455.869,-0.0174189078449,0.0620848056571
3457.798,-0.0177087400118,0.0644732608757
3459.726,-0.0179885762169,0.0663561585193
3461.655,-0.0182587067467,0.067006173022
3463.583,-0.0185188515281,0.0663545263725
3465.512,-0.0187692804207,0.066778296986
3467.44,-0.0190097337782,0.0679067771835
3469.369,-0.0192404610336,0.0704423202633
3471.297,-0.0194612229673,0.0721896076741
3473.226,-0.0196722485856,0.0730744293363
3475.154,-0.0198733190955,0.0743753111274
3477.083,-0.0200646430766,0.0757877156984
3479.011,-0.0202460221627,0.0787485034656
3480.94,-0.0204176445066,0.076838277763
3482.868,-0.020579332169,0.0745487177844
3484.797,-0.0207312528756,0.0795514108403
3486.725,-0.0208732491142,0.0825933861101
3488.654,-0.0210054681837,0.0792087952264
3490.582,-0.0211277729985,0.0774246905913
3492.511,-0.0212402904308,0.0775574778216
3494.439,-0.0213429038218,0.0773406671544
3496.368,-0.0214357196169,0.0766177983197
3498.296,-0.0215186415841,0.075791375211
3500.225,-0.0215917557421,0.0767165198436
3502.153,-0.0216549862855,0.0779162569921
3504.082,-0.0217083988062,0.0767314644384
3506.01,-0.0217519379259,0.0806101891316
3507.939,-0.0217856488094,0.0845842788507
3509.867,-0.0218094965053,0.0865410964214
3511.796,-0.0218235057517,0.089836366589
3513.724,-0.0218276620237,0.0929659160252
3515.653,-0.0218219696329,0.0944822058809
3517.581,-0.0218064344812,0.0986523840163
3519.51,-0.0217810404532,0.102192028082
3521.438,-0.0217458138776,0.101231380384
3523.367,-0.0217007182125,0.0988542095104
3525.295,-0.0216458002131,0.102175960275
3527.224,-0.0215810029108,0.103868694251
3529.152,-0.0215063934877,0.101840845155
3531.081,-0.0214218945481,0.0979756794087
3533.009,-0.0213275937012,0.0954116085191
3534.938,-0.0212233931245,0.0934628563243
3536.866,-0.0211094008538,0.0913750051035
3538.795,-0.0209854986399,0.0923711839687
3540.723,-0.0208518149454,0.0951416730568
3542.652,-0.0207082110943,0.0934460317415
3544.58,-0.020554835976,0.0871495099118
3546.509,-0.0203915304877,0.0825981426356
3548.437,-0.0202184639457,0.0800891566136
3550.366,-0.0200354568202,0.079363757652
3552.294,-0.0198426988543,0.0823278459851
3554.223,-0.0196399900917,0.0902208246482
3556.151,-0.019427540702,0.0997252970451
3558.08,-0.0192051303022,0.109985867005
3560.008,-0.0189729894888,0.122665238038
3561.937,-0.0187308774517,0.132999417327
3563.865,-0.0184790452145,0.136653714957
3565.794,-0.0182172315403,0.132725863678
3567.722,-0.0179457078793,0.130761811884
3569.651,-0.0176641925679,0.142735136861
3571.579,-0.0173729774831,0.151888599207
3573.508,-0.0170717605345,0.147327229885
3575.436,-0.0167608540259,0.130165830611
3577.365,-0.0164399354402,0.109438118148
3579.293,-0.0161093375078,0.0940344790469
3581.222,-0.0157687172848,0.0811625804287
3583.15,-0.0154184279286,0.0742812223649
3585.079,-0.0150581060685,0.0729329225919
3587.007,-0.0146881252885,0.0676870069549
3588.936,-0.0143081017912,0.0711732726866
3590.864,-0.0139184295875,0.0867537549527
3592.793,-0.013518704453,0.10163326376
3594.721,-0.0131093408254,0.11907215623
3596.65,-0.0126899140537,0.139862626712
3598.578,-0.0122608590024,0.144746705092
3600.507,-0.0118217305935,0.124325749605
3602.435,-0.0113729841184,0.0944871939457
3604.364,-0.0109141540723,0.0729467255408
3606.292,-0.0104457161734,0.0582216300617
3608.221,-0.00996718449016,0.047871706752
3610.149,-0.00947905516744,0.0455935445782
3612.078,-0.00898082184702,0.0418388633652
3614.006,-0.00847300110051,0.0333863302401
3615.935,-0.00795506614291,0.0353968778435
3617.863,-0.0074275539726,0.0339334601724
3619.792,-0.00688991737782,0.0287833960945
3621.72,-0.00634271378373,0.0333249602365
3623.649,-0.00578537555175,0.0362250204808
3625.577,-0.00521848053387,0.0345177745857
3627.506,-0.00464144066471,0.0272876977417
3629.434,-0.00405485422304,0.0156820297315
3631.363,-0.0034581127167,0.0247337120737
3633.291,-0.00285183485123,0.028473558483
3635.22,-0.00223539170771,0.0290020094473
3637.148,-0.00160942241846,0.0323856158902
3639.077,-0.000973277637744,0.0324907166536
3641.005,-0.0003276169247,0.0347583151843
3642.934,0.000328229493199,0.0328062501322
3644.862,0.000993581630034,0.029318153884
3646.791,0.00166912968512,0.0178464920385
3648.719,0.00235417324574,0.00176094522774
3650.648,0.00304942293801,-0.00304942293801
3652.576,0.00375415792242,0.0130170030477
3654.505,0.00446910925187,0.0244946846951
3656.433,0.00519353566008,0.0209153620823
3658.362,0.00592818862672,0.0201901450561
3660.29,0.00667230645871,0.0226912917799
3662.219,0.00742666106253,0.0238947200796
3664.147,0.00819047031832,0.0252452604428
3666.076,0.00896452655932,0.0257677723154
3668.004,0.0097480272389,0.02194170506
3669.933,0.0105417851171,0.00827557701333
3671.861,0.0113449772205,0.0118754743068
3673.79,0.0121584367358,0.0174138006305
3675.718,0.012981320263,-0.00305610882803
3677.647,0.0138144814156,-0.000548597582466
3679.575,0.0146570563665,0.00861511809355
3681.504,0.0155099191562,0.0132738929637
3683.432,0.016372185531,0.0140765458592
3685.361,0.0172447499579,0.0109557812506
3687.289,0.0181267077564,0.00491585881935
3689.218,0.0190189738206,-0.00887219252469
3691.146,0.0199206230429,-0.00804007505938
3693.075,0.0208325907442,0.000459434138743
3695.003,0.0217539313903,0.00654026026414
3696.932,0.0226856007288,0.00501936886653
3698.86,0.0236266327987,0.00407833679663
