baseline wavenumber (cm-1),baseline absorbance (cm-1),baseline-subtracted absorbance (cm-1)
3199.379,0.158451935712,3.99680288865e-15
3201.308,0.156795455791,0.000984287462112
3203.236,0.155149680306,-4.96095487539e-05
3205.165,0.153512902022,0.000100258799165
3207.093,0.151886817961,-0.000934629544518
3209.021,0.150270577059,0.000435477727482
3210.95,0.148663348676,0.00325922283895
3212.878,0.147066799198,0.00275175937856
3214.807,0.145479272453,0.00131239842547
3216.736,0.14390159908,0.00344955830376
3218.664,0.142334589291,0.00214029193859
3220.593,0.140776617555,-0.000471856612993
3222.521,0.139229299189,0.00199075539486
3224.449,0.137691823983,0.00696702570919
3226.378,0.136163402149,0.00857378576187
3228.306,0.134645618366,0.00823217401256
3230.235,0.133136898169,0.00763839749426
3232.164,0.131638031345,0.00795814777114
3234.092,0.130149787251,0.00939281863206
3236.021,0.128670622064,0.00973532153236
3237.949,0.127202069393,0.00792731501982
3239.877,0.125743359882,0.00867390485075
3241.806,0.124293744597,0.010371675397
3243.734,0.122854726509,0.0110050733493
3245.663,0.121424812861,0.0119942713396
3247.592,0.120004752586,0.0131211950536
3249.52,0.118595274187,0.012703624024
3251.448,0.117195638947,0.0142912709896
3253.377,0.115805128573,0.0137546611771
3255.305,0.114425184757,0.014968831214
3257.234,0.113054376021,0.0158286725996
3259.162,0.111694123628,0.0161422253055
3261.091,0.110343016529,0.0149531524794
3263.02,0.109001762803,0.013470187061
3264.948,0.107671050098,0.0141276964902
3266.876,0.106350180553,0.0159615550172
3268.805,0.105038476729,0.0194045638051
3270.733,0.103737298607,0.0211727387927
3272.662,0.10244529642,0.0200155344706
3274.591,0.101163147605,0.0183314445308
3276.519,0.0998915091722,0.0198234407924
3278.448,0.0986290619945,0.02164436366
3280.376,0.0973771149855,0.0231480037854
3282.304,0.0961350111357,0.0239832543046
3284.233,0.0949021138597,0.0207786705333
3286.161,0.0936797014337,0.0197697072391
3288.09,0.0924665057949,0.0202414695412
3290.019,0.0912631635287,0.0232809585778
3291.947,0.0900702907911,0.025037361084
3293.875,0.0888872612126,0.0260985873672
3295.804,0.0877134688482,0.0257885022425
3297.732,0.0865501306936,0.0268133586423
3299.661,0.0853960399663,0.028895883616
3301.589,0.0842523932355,0.0306404602973
3303.518,0.0831180041454,0.0303976129576
3305.447,0.081993468428,0.0299083813648
3307.375,0.0808793613855,0.0295153621564
3309.303,0.0797750975022,0.0310901607612
3311.232,0.0786801116866,0.0327132977949
3313.16,0.0775955392271,0.0334622794326
3315.089,0.0765202550486,0.0341650780152
3317.017,0.0754553740129,0.0340786399364
3318.946,0.0743997914716,0.032342854844
3320.875,0.0733540623029,0.0338298050781
3322.803,0.0723187209555,0.0347478918009
3324.731,0.0712932227674,0.0360887644963
3326.66,0.0702770435005,0.0363726077681
3328.588,0.0692712367362,0.0360769892822
3330.517,0.0682747591064,0.0344701110038
3332.445,0.0672886437659,0.0354375262533
3334.374,0.0663118677733,0.0376682191568
3336.302,0.0653454438566,0.0371735089383
3338.231,0.0643883695012,0.0374204852446
3340.159,0.0634416370082,0.0413471025045
3342.088,0.0625042642901,0.0421798557949
3344.016,0.0615772232209,0.0409073618393
3345.945,0.0606595521399,0.0406438947418
3347.873,0.0597522024945,0.0411580370688
3349.802,0.0588542330507,0.0423253889042
3351.73,0.0579665748291,0.0436724628743
3353.659,0.0570883070225,0.0435298067954
3355.587,0.0562203402247,0.0426541164619
3357.516,0.0553617740552,0.0421900302509
3359.444,0.0545134986812,0.042662282174
3361.373,0.0536746341489,0.0426030369316
3363.302,0.0528456229893,0.0429407916473
3365.23,0.0520268873036,0.0436230672097
3367.158,0.0512179947772,0.0457485472222
3369.087,0.0504185335193,0.0474946374096
3371.015,0.0496293324167,0.0477743873852
3372.944,0.048849572796,0.0461701381107
3374.872,0.0480800631171,0.0468471581504
3376.801,0.0473200051336,0.048042372305
3378.729,0.0465701868785,0.0484934945123
3380.658,0.0458298305322,0.0480552397195
3382.586,0.0450997037009,0.0489132347404
3384.515,0.0443790489918,0.0484178781284
3386.443,0.0436686135843,0.0502306080876
3388.372,0.0429676605123,0.0538320968919
3390.3,0.0422769165286,0.0545951142001
3392.229,0.0415956650939,0.0517668134263
3394.157,0.040924612534,0.0507113927223
3396.086,0.0402630627364,0.0523382715404
3398.014,0.0396117016003,0.0531862363356
3399.943,0.0389698534398,0.0542430243525
3401.871,0.0383381837275,0.055126892589
3403.8,0.0377160372043,0.0551046440855
3405.728,0.0371040589158,0.0564322799096
3407.657,0.0365016140297,0.0575386164363
3409.585,0.035909327165,0.0591083621102
3411.514,0.0353265839161,0.0592241084926
3413.442,0.0347539884752,0.0597400982528
3415.371,0.0341909468635,0.0602616964196
3417.299,0.0336380428464,0.0589208371698
3419.228,0.0330947028719,0.0578443449397
3421.156,0.0325614902785,0.0585615259956
3423.085,0.0320378519412,0.0623607127005
3425.013,0.0315243307716,0.0646466992496
3426.942,0.0310203940715,0.0637420642323
3428.87,0.0305265643257,0.0633241381912
3430.799,0.0300423292628,0.0643415785508
3432.727,0.0295681909408,0.065480833622
3434.656,0.0291036575151,0.0664780669366
3436.584,0.0286492106169,0.0663654462112
3438.513,0.0282043788283,0.0676901930912
3440.441,0.0277696233539,0.067390590939
3442.37,0.0273444932025,0.0626979610581
3444.298,0.0269294291519,0.0636032707369
3446.227,0.0265240006377,0.0632672659144
3448.155,0.0261286280109,0.0639608291811
3450.084,0.0257429011338,0.0707788819451
3452.012,0.0253672199308,0.0735400882669
3453.941,0.025001194691,0.0715766886609
3455.869,0.0246452049117,0.0699049820892
3457.798,0.0242988813091,0.0710781529576
3459.726,0.0239625829536,0.07289883421
3461.655,0.0236359609882,0.0704315615025
3463.583,0.0233193540565,0.0717013676659
3465.512,0.0230124337282,0.0741754769157
3467.44,0.0227155182204,0.072402241812
3469.369,0.0224282995293,0.0714840627471
3471.297,0.0221510754452,0.0735858092207
3473.226,0.0218835583913,0.0741070410225
3475.154,0.021626025731,0.0736883379605
3477.083,0.0213782103143,0.0741838032307
3479.011,0.0211403690778,0.0743731253122
3480.94,0.0209122552982,0.070344188652
3482.868,0.0206941054855,0.06681524456
3484.797,0.0204856933432,0.070897607981
3486.725,0.0202872349542,0.0728452829877
3488.654,0.0200985244491,0.0710477405868
3490.582,0.0199197574839,0.0724536378461
3492.511,0.019750748616,0.0724472701852
3494.439,0.0195916730746,0.0709617485366
3496.368,0.0194423658438,0.0695068912066
3498.296,0.0193029817263,0.0711084202751
3500.225,0.0191733761327,0.0708402698797
3502.153,0.0190536834389,0.0653807651611
3504.082,0.0189437794825,0.0624567057091
3506.01,0.0188437782125,0.0697153039668
3507.939,0.0187535758933,0.0726959338611
3509.867,0.0186732660471,0.0722167572017
3511.796,0.018602765365,0.0738545276705
3513.724,0.0185421469426,0.0745873385522
3515.653,0.0184913478978,0.0748190736124
3517.581,0.0184504208992,0.071768420706
3519.51,0.0184193234915,0.0690794129889
3521.438,0.0183980879167,0.0677370581462
3523.367,0.0183866921462,0.0655049484078
3525.295,0.0183851479952,0.0641767644682
3527.224,0.0183934538618,0.0610930517482
3529.152,0.0184116011346,0.0607524542581
3531.081,0.0184396086385,0.0655187457535
3533.009,0.018477447335,0.0705860318927
3534.938,0.0185251564761,0.0710219980776
3536.866,0.0185826865964,0.0657238938139
3538.795,0.0186500973747,0.0671150901316
3540.723,0.0187273189188,0.0696073621688
3542.652,0.0188144313342,0.0647481887001
3544.58,0.0189113443022,0.0546785677568
3546.509,0.0190181583548,0.0526658606486
3548.437,0.0191347627465,0.0602410585413
3550.366,0.0192612784363,0.0643882717507
3552.294,0.0193975742518,0.0586045484612
3554.223,0.0195437915788,0.0622397927738
3556.151,0.0196997788181,0.0732174353737
3558.08,0.0198656977823,0.0812113263762
3560.008,0.0200413764454,0.0854529124458
3561.937,0.0202269970467,0.0873202585886
3563.865,0.0204223671336,0.085840141711
3565.794,0.0206276893721,0.0708890396282
3567.722,0.0208427508828,0.0527299773088
3569.651,0.0210677747585,0.0659331349756
3571.579,0.021302527693,0.0785074389501
3573.508,0.0215472532059,0.0761961006807
3575.436,0.0218016975641,0.0698530077831
3577.365,0.0220661247142,0.0670681116145
3579.293,0.0223402604963,0.0662739111402
3581.222,0.0226243892835,0.0652579517657
3583.15,0.0229182164894,0.0630819856738
3585.079,0.0232220469138,0.0599690983404
3587.007,0.0235355655435,0.0488241837742
3588.936,0.0238590976051,0.0565785856052
3590.864,0.0241923076585,0.0821753260218
3592.793,0.0245355413573,0.0957828655971
3594.721,0.0248884428346,0.10714784545
3596.65,0.0252513781706,0.129372598379
3598.578,0.0256239710716,0.142492373819
3600.507,0.0260066080448,0.12456500825
3602.435,0.0263988923696,0.0936748971786
3604.364,0.0268012309799,0.0750061075423
3606.292,0.0272132067285,0.0568320778161
3608.221,0.0276352469761,0.0364802892617
3610.149,0.0280669141485,0.0357711531719
3612.078,0.0285086560332,0.0326310387004
3614.006,0.0289600146294,0.0189248534592
3615.935,0.0294214581513,0.0258656135155
3617.863,0.0298925081713,0.0198830907371
3619.792,0.0303736533304,0.0101322599416
3621.72,0.0308643947741,0.0279423372586
3623.649,0.0313652415704,0.0410364566
3625.577,0.031875674438,0.0410541749505
3627.506,0.0323962228714,0.0278003807877
3629.434,0.0329263471628,-0.00587388582648
3631.363,0.0334665972334,0.0173759176761
3633.291,0.0340164129486,0.0283918555241
3635.22,0.0345763646564,0.026876682953
3637.148,0.0351458717953,0.0317327292357
3639.077,0.0357255251404,0.0334031517019
3641.005,0.0363147237031,0.0362052399076
3642.934,0.0369140786853,0.0321281734122
3644.862,0.0375229686718,0.029866094302
3646.791,0.0381420252912,0.00943050073733
3648.719,0.0387706067015,-0.0238641071563
3650.648,0.0394093649581,-0.0284278628859
3652.576,0.0400576377921,0.00595065089684
3654.505,0.0407160976859,0.0230062312335
3656.433,0.0413840619438,0.00892878552413
3658.362,0.0420622234747,0.0167763492535
3660.29,0.0427498791564,0.0302254569398
3662.219,0.0434477423245,0.033845798563
3664.147,0.04415508943,0.0306927828029
3666.076,0.0448726542353,0.0251869838927
3668.004,0.0455996927645,0.0145069482948
3669.933,0.0463369592071,-0.0137502817584
3671.861,0.0470836891601,-0.00491094075212
3673.79,0.0478406572398,0.00474450398533
3675.718,0.0486070786166,-0.0451687889168
3677.647,0.0493837483335,-0.0265403236898
3679.575,0.0501698611341,0.00193010854143
3681.504,0.0509662324882,0.0145957810568
3683.432,0.0517720367126,0.0213018539172
3685.361,0.0525881097038,0.0203119206207
3687.289,0.053413605352,0.00723988701634
3689.218,0.0542493799804,-0.0278741651821
3691.146,0.0550945670524,-0.0190847621399
3693.075,0.055950043318,0.00382454477456
3695.003,0.0568149218138,0.0150055573128
3696.932,0.0576900997166,0.0134642518451
3698.86,0.0585746696362,0.0125796819255
