baseline wavenumber (cm-1),baseline absorbance (cm-1),baseline-subtracted absorbance (cm-1)
3199.379,0.167198574125,1.02140518266e-14
3201.308,0.165779034899,-0.000507140022636
3203.236,0.164367264219,0.000557947215769
3205.165,0.162961797592,0.000874785898691
3207.093,0.161564092215,0.000521250624631
3209.021,0.160173417665,0.00125175882186
3210.95,0.158789058111,0.00249283187334
3212.878,0.157412448864,0.00334452324763
3214.807,0.156042161907,0.0019553218419
3216.736,0.154678913074,0.00325776128121
3218.664,0.153323403605,0.00521752041845
3220.593,0.151974227369,0.00559374634973
3222.521,0.150632783203,0.00588500529226
3224.449,0.149298369864,0.00622165529815
3226.378,0.147970300702,0.0067976450591
3228.306,0.146649952666,0.00716985581947
3230.235,0.145335956101,0.00692133054166
3232.164,0.14402899766,0.00975795977355
3234.092,0.142729749401,0.00960826695417
3236.021,0.141436863558,0.00676506556751
3237.949,0.140151680602,0.00692387681706
3239.877,0.138873528475,0.00715184372075
3241.806,0.137601749704,0.00673423967184
3243.734,0.136337662879,0.00657280053052
3245.663,0.135079956706,0.00576123991073
3247.592,0.133829288657,0.00744840757571
3249.52,0.132586301609,0.00950952560813
3251.448,0.13135034539,0.0115419450974
3253.377,0.130120784413,0.010375825638
3255.305,0.128898893496,0.00945086536315
3257.234,0.127683405117,0.0100428827137
3259.162,0.126475579503,0.0111654353846
3261.091,0.125274163723,0.0109996882381
3263.02,0.124079786065,0.0096543999977
3264.948,0.122893060228,0.00969343589246
3266.876,0.12171336522,0.0103796661637
3268.805,0.120540094635,0.0104024509722
3270.733,0.119374464929,0.0112311826563
3272.662,0.118215266942,0.0102515674747
3274.591,0.117063107079,0.00971119920512
3276.519,0.11591857715,0.00972201836281
3278.448,0.114780489884,0.0110187692195
3280.376,0.113650025258,0.0122387005401
3282.304,0.112526591461,0.0122161917924
3284.233,0.111409611268,0.010696700328
3286.161,0.110300242773,0.0114087108865
3288.09,0.109197335178,0.0118238432664
3290.019,0.108101465706,0.0133901118433
3291.947,0.107013196988,0.0144175711671
3293.875,0.105931959099,0.0153408444242
3295.804,0.1048571967,0.015513600812
3297.732,0.103790024113,0.0146478035242
3299.661,0.102729334312,0.0152440353674
3301.589,0.101676227027,0.0177576165456
3303.518,0.100629609825,0.0186176118152
3305.447,0.099590030745,0.0176616642295
3307.375,0.098558023238,0.0168791753361
3309.303,0.0975330465591,0.0165212625204
3311.232,0.0965145745522,0.0161935403566
3313.16,0.0955036631759,0.0174183330497
3315.089,0.094499263767,0.018927380533
3317.017,0.0935024176935,0.0193654092444
3318.946,0.0925120908826,0.0195337607984
3320.875,0.091528802195,0.0194396048785
3322.803,0.0905530558988,0.0198041119211
3324.731,0.0895843404307,0.0201346782315
3326.66,0.0886221588158,0.0192764222984
3328.588,0.0876675086503,0.0204432063843
3330.517,0.0867193996334,0.0224002620706
3332.445,0.0857788147707,0.0240785976847
3334.374,0.0848447783517,0.0225505526051
3336.302,0.0839182587917,0.0219610310664
3338.231,0.0829982949708,0.0219314596948
3340.159,0.0820858407135,0.0245832723081
3342.088,0.0811799494905,0.0250306467211
3344.016,0.0802815605359,0.0247596780186
3345.945,0.0793897419109,0.0252855918418
3347.873,0.078505418259,0.0282639953147
3349.802,0.0776276722321,0.0294632622755
3351.73,0.0767574138829,0.0297785475346
3353.659,0.0758937404539,0.0293246840936
3355.587,0.0750375474074,0.0288465652647
3357.516,0.0741879465764,0.0302979694088
3359.444,0.0733458188326,0.0314406493298
3361.373,0.0725102905996,0.0315412226457
3363.302,0.0716818004899,0.0320834892285
3365.23,0.0708607725235,0.0311829822818
3367.158,0.0700467753851,0.0311047588289
3369.087,0.0692393923481,0.0291121139076
3371.015,0.0684394605125,0.0281894623924
3372.944,0.0676461500734,0.0301860299783
3374.872,0.0668602835405,0.0319623207791
3376.801,0.0660810456994,0.0318727531403
3378.729,0.0653092444692,0.0307087886615
3380.658,0.0645440792261,0.0307526286791
3382.586,0.0637863432986,0.0312206462869
3384.515,0.0630352506535,0.0317477227162
3386.443,0.0622915800287,0.0334500149947
3388.372,0.0615545599816,0.0350348717651
3390.3,0.0608249546595,0.0357913869915
3392.229,0.0601020072104,0.0344730259902
3394.157,0.059386467191,0.0348306992311
3396.086,0.0586775923398,0.0361937992866
3398.014,0.0579761176231,0.0383648343584
3399.943,0.05728131537,0.0399553519956
3401.871,0.056593905956,0.0416045283768
3403.8,0.0559131763009,0.0426616472121
3405.728,0.0552398321896,0.0425755728569
3407.657,0.0545731751325,0.0433806237073
3409.585,0.0539138963239,0.0448178433839
3411.514,0.0532613118647,0.0465604537046
3413.442,0.0526160983589,0.046210699712
3415.371,0.0519775864977,0.0437161298649
3417.299,0.0513464382945,0.0431443704005
3419.228,0.0507219990314,0.0413035828516
3421.156,0.0501049161309,0.0411214066482
3423.085,0.0494945494657,0.0437559572792
3425.013,0.048891531868,0.0461986337852
3426.942,0.0482952378008,0.0476308822803
3428.87,0.0477062855057,0.0468589622751
3430.799,0.0471240640365,0.0455599368022
3432.727,0.0465491770442,0.0478210613007
3434.656,0.045981028173,0.0516239903494
3436.584,0.0454202064833,0.0526510173931
3438.513,0.0448661302101,0.0520283969444
3440.441,0.0443193738232,0.0520757474461
3442.37,0.0437793701479,0.0514243762699
3444.298,0.0432466790637,0.053681048622
3446.227,0.0427207479865,0.0524193932031
3448.155,0.042202122205,0.0523833953738
3450.084,0.0416902637257,0.0558487032135
3452.012,0.0411857032469,0.0570413883865
3453.941,0.0406879173656,0.0571152559062
3455.869,0.0401974221896,0.0596571944317
3457.798,0.0397137089063,0.0593860324791
3459.726,0.0392372790329,0.0594556684753
3461.655,0.0387676383476,0.0603915145146
3463.583,0.0383052737769,0.0630384740388
3465.512,0.0378497056896,0.0653871713636
3467.44,0.0374014064217,0.0675692373192
3469.369,0.0369599109323,0.0696281228973
3471.297,0.0365256769671,0.0716563318398
3473.226,0.0360982540757,0.0708770027915
3475.154,0.0356780854132,0.0709490900953
3477.083,0.0352647351199,0.0737098926847
3479.011,0.03485863176,0.0771798808562
3480.94,0.0344593540647,0.0781365779966
3482.868,0.0340673160075,0.0803805067366
3484.797,0.0336821109102,0.083103029231
3486.725,0.0333041381557,0.083013049235
3488.654,0.0329330056564,0.0828281602065
3490.582,0.0325690982047,0.0826919628144
3492.511,0.0322120383033,0.0805471005798
3494.439,0.0318621961543,0.0788909316853
3496.368,0.0315192088509,0.0766519660985
3498.296,0.0311834320046,0.0770523966108
3500.225,0.0308545172991,0.0780159656812
3502.153,0.0305328057556,0.0722507966768
3504.082,0.0302179636481,0.070326874543
3506.01,0.0299103174072,0.0784156768613
3507.939,0.0296095478978,0.0836944291764
3509.867,0.0293159669596,0.0871053652554
3511.796,0.0290292700482,0.093023221739
3513.724,0.0287497544127,0.0973577454125
3515.653,0.0284771300993,0.102564318143
3517.581,0.0282116797665,0.107709198125
3519.51,0.027953128051,0.112599398684
3521.438,0.027701743021,0.117426865353
3523.367,0.0274572639035,0.118224570164
3525.295,0.0272199441762,0.11924891722
3527.224,0.0269895376567,0.116460521755
3529.152,0.026766283232,0.113490234556
3531.081,0.0265499493105,0.111860968422
3533.009,0.0263407601886,0.107885842174
3534.938,0.0261384988651,0.104718424319
3536.866,0.0259433750459,0.100888944798
3538.795,0.0257551863204,0.101402848208
3540.723,0.0255741278038,0.102111969911
3542.652,0.0254000116763,0.100531700073
3544.58,0.0252330184625,0.0912410851232
3546.509,0.025072974933,0.0784724923208
3548.437,0.0249200470219,0.0769500165834
3550.366,0.0247740760903,0.0810035152985
3552.294,0.0246352134819,0.079053540275
3554.223,0.0245033151483,0.0870714384688
3556.151,0.0243785178427,0.102856751606
3558.08,0.0242606921071,0.119834506048
3560.008,0.0241499601041,0.136401168714
3561.937,0.0240462069665,0.149975251061
3563.865,0.0239495402662,0.158597464696
3565.794,0.0238598597266,0.154787655476
3567.722,0.0237772583291,0.153386717347
3569.651,0.0237016503875,0.180954811484
3571.579,0.0236331142926,0.20557915942
3573.508,0.023571578949,0.204209227649
3575.436,0.0235171081569,0.174940989278
3577.365,0.0234696454112,0.137560270015
3579.293,0.0234292399218,0.1077086646
3581.222,0.0233958497741,0.088679358166
3583.15,0.0233695095874,0.0767101716875
3585.079,0.0233501920378,0.0687064935008
3587.007,0.0233379171537,0.056264025951
3588.936,0.0233326722021,0.0578300453488
3590.864,0.0233344626208,0.0771023864741
3592.793,0.0233432902671,0.091542779489
3594.721,0.0233591459885,0.104051911536
3596.65,0.0233820462328,0.121234225522
3598.578,0.0234119672569,0.128197384809
3600.507,0.0234489400992,0.107676732648
3602.435,0.023492926426,0.0760027749789
3604.364,0.0235439718663,0.058613713183
3606.292,0.0236020234958,0.0460533899382
3608.221,0.0236671415341,0.0315767950005
3610.149,0.0237392584663,0.0294490409675
3612.078,0.0238184491026,0.0279446738442
3614.006,0.0239046313375,0.0187597986618
3615.935,0.0239978945718,0.021549040495
3617.863,0.0240981421094,0.0205579702831
3619.792,0.0242054779416,0.0151535770664
3621.72,0.024319790782,0.0179713953507
3623.649,0.0244411992122,0.0224739472196
3625.577,0.0245695773553,0.0222644898845
3627.506,0.0247050583835,0.014006062047
3629.434,0.0248475018293,-0.00702335980089
3631.363,0.0249970554555,0.00680031646036
3633.291,0.025153564204,0.0150372514807
3635.22,0.0253171904282,0.0200515102079
3637.148,0.0254877644793,0.0250584716289
3639.077,0.0256654633015,0.0245484180153
3641.005,0.0258501026554,0.0251892487111
3642.934,0.0260418740756,0.0232766413364
3644.862,0.0262405787322,0.0252667253847
3646.791,0.0264464227504,0.0130947109604
3648.719,0.0266591927097,-0.0140139840705
3650.648,0.0268791093258,-0.0186971005189
3652.576,0.0271059445878,0.00586043550584
3654.505,0.027339933802,0.0169247618016
3656.433,0.0275808343667,0.00843999459816
3658.362,0.0278288961788,0.0123234767855
3660.29,0.0280838620462,0.0186939390302
3662.219,0.0283459964564,0.0212479086251
3664.147,0.0286150276265,0.0231040609316
3666.076,0.0288912346346,0.0221156151592
3668.004,0.0291743311074,0.0176810543682
3669.933,0.0294646107136,0.000536088245
3671.861,0.0297617724891,0.00124927105602
3673.79,0.0300661246932,0.00767484126753
3675.718,0.0303773517714,-0.017036329894
3677.647,0.0306957765735,-0.0103054082224
3679.575,0.0310210689545,0.00118589267269
3681.504,0.0313535663546,0.00874009409138
3683.432,0.0316929240382,0.0128688289498
3685.361,0.0320394940363,0.0125033870709
3687.289,0.0323929170227,0.0067050769663
3689.218,0.0327535596187,-0.0129926034434
3691.146,0.0331210479078,-0.0132894969188
3693.075,0.0334957631018,-0.00198181887872
3695.003,0.0338773166936,0.0064599308076
3696.932,0.0342661044856,0.00574263249625
3698.86,0.0346617233801,0.00534701360175
