baseline wavenumber (cm-1),baseline absorbance (cm-1),baseline-subtracted absorbance (cm-1)
3199.379,0.190435661579,5.77315972805e-15
3201.308,0.188575759026,0.000677248150936
3203.236,0.186726666364,0.00169342865231
3205.165,0.184886465449,0.00153777391264
3207.093,0.183057064211,0.0025782334744
3209.021,0.181237506132,0.000980223575527
3210.95,0.179426855118,0.0018437402522
3212.878,0.177626988464,0.00283040565348
3214.807,0.175836039087,0.00341444105079
3216.736,0.174054943082,0.00294950450682
3218.664,0.172284616116,0.00354425278114
3220.593,0.170523221749,0.00295246813278
3222.521,0.168772586206,0.00464902503385
3224.449,0.167031793823,0.00542954247529
3226.378,0.165299949358,0.0071012434048
3228.306,0.163578848398,0.00759369784659
3230.235,0.16186670557,0.00867711329175
3232.164,0.160164416115,0.00783315792774
3234.092,0.158472854843,0.00901476266397
3236.021,0.156790267025,0.0102864538888
3237.949,0.155118397178,0.0109540783101
3239.877,0.153456370489,0.0109002452995
3241.806,0.151803332573,0.0131056940116
3243.734,0.150160997308,0.0124560046121
3245.663,0.148527661029,0.0122622914626
3247.592,0.146904178122,0.0133166851144
3249.52,0.145291382546,0.0156532247518
3251.448,0.143688430129,0.0152118023581
3253.377,0.142094497124,0.0156619973666
3255.305,0.140511236131,0.0161313394271
3257.234,0.138937004764,0.0174053585236
3259.162,0.137373435194,0.0168740124959
3261.091,0.135818905464,0.0181733112552
3263.02,0.134274229106,0.0184251542968
3264.948,0.132740199225,0.0194138490922
3266.876,0.131216012503,0.019884765825
3268.805,0.129700886047,0.0209510900979
3270.733,0.128196390749,0.021371990935
3272.662,0.12670096593,0.022421646018
3274.591,0.125215394483,0.021583857513
3276.519,0.123740438874,0.022130378876
3278.448,0.122274569065,0.0216908610376
3280.376,0.120819304879,0.0231526955255
3282.304,0.119373883852,0.0233310590365
3284.233,0.117937563945,0.024968531274
3286.161,0.116511834342,0.0253809181091
3288.09,0.115095216072,0.0264851943194
3290.019,0.113688451174,0.0265354445098
3291.947,0.11229226126,0.0277208793448
3293.875,0.110905914505,0.0271512976656
3295.804,0.109528699509,0.0275813783242
3297.732,0.108162044177,0.0272913066769
3299.661,0.106804530818,0.0287958937242
3301.589,0.105457566911,0.0288040321995
3303.518,0.104119755189,0.0298749885689
3305.447,0.10279179684,0.0297089612715
3307.375,0.101474372621,0.0304679098008
3309.303,0.100166791561,0.0300313283216
3311.232,0.0988683831139,0.0303502563281
3313.16,0.0975804934778,0.0296791850828
3315.089,0.0963017866677,0.030838615637
3317.017,0.0950335884553,0.0308832214102
3318.946,0.0937745832824,0.0308504040824
3320.875,0.0925254314821,0.0307526439247
3322.803,0.0912867729581,0.0321742600955
3324.731,0.0900579575934,0.0326914611876
3326.66,0.0888383556948,0.0337943138695
3328.588,0.0876292317538,0.033267867205
3330.517,0.0864293314925,0.0329636736627
3332.445,0.0852398989753,0.0326752935851
3334.374,0.0840597003511,0.0345135332484
3336.302,0.0828899592577,0.0342049563391
3338.231,0.0817294622708,0.0344779571167
3340.159,0.0805794126012,0.034207810688
3342.088,0.0794386172514,0.035586147734
3344.016,0.0783082590055,0.0359513184735
3345.945,0.0771871652929,0.036715594234
3347.873,0.0760764984709,0.0361109067651
3349.802,0.0749751063955,0.0377535906631
3351.73,0.0738841309972,0.0369331135191
3353.659,0.072802440559,0.036736122061
3355.587,0.0717311565845,0.0362977527453
3357.516,0.0706691677835,0.0377211081692
3359.444,0.0696175752328,0.0385124156698
3361.373,0.068575288069,0.039795276977
3363.302,0.0675428542777,0.0394666473902
3365.23,0.0665208014154,0.0403365724853
3367.158,0.0655085917123,0.0398750128566
3369.087,0.0645057078228,0.0402415882451
3371.015,0.0635131895435,0.0393160836799
3372.944,0.0625300072912,0.0404837398027
3374.872,0.0615571804357,0.0406251707216
3376.801,0.0605936998206,0.040869961354
3378.729,0.0596405643889,0.0405924286365
3380.658,0.0586967854109,0.0415473265874
3382.586,0.057763341403,0.0407285215304
3384.515,0.0568392640623,0.0415393875096
3386.443,0.0559255114781,0.041466078535
3388.372,0.0550211357746,0.0430658954596
3390.3,0.0541270746142,0.0449429749157
3392.229,0.0532424005478,0.0459342900415
3394.157,0.0523680308113,0.0447036360238
3396.086,0.0515030583821,0.0458794342895
3398.014,0.0506483800693,0.0452416431794
3399.943,0.0498031092773,0.0474009744182
3401.871,0.0489681223884,0.0487474340657
3403.8,0.0481425532335,0.0487800182817
3405.728,0.0473272577683,0.0480336034467
3407.657,0.0465213902507,0.0499629926463
3409.585,0.0457257862093,0.0498812086355
3411.514,0.0449396203288,0.0508417402291
3413.442,0.0441637077113,0.0503521115549
3415.371,0.043397243468,0.0519307662359
3417.299,0.0426410222742,0.0523903130134
3419.228,0.0418942596681,0.0527812684832
3421.156,0.0411577298981,0.0514906073101
3423.085,0.0404306689291,0.052623005386
3425.013,0.0397138305829,0.0542232966788
3426.942,0.0390064712512,0.0565848559499
3428.87,0.0383093243288,0.0571885024174
3430.799,0.0376216666342,0.0585245984017
3432.727,0.0369442111356,0.0587330354024
3434.656,0.0362762550782,0.0605684836259
3436.584,0.0356184910034,0.0615643655619
3438.513,0.0349702365832,0.0633558525708
3440.441,0.0343321639321,0.0631033965652
3442.37,0.0337036111491,0.0636874734561
3444.298,0.0330852299219,0.0632722956012
3446.227,0.0324763787761,0.0624660047274
3448.155,0.0318776889726,0.0606801802278
3450.084,0.031288539464,0.0630170301307
3452.012,0.0307095410843,0.0641762367384
3453.941,0.0301400932129,0.0659793852062
3455.869,0.029580786257,0.0651538746144
3457.798,0.0290310400227,0.066074084813
3459.726,0.0284914244906,0.0656018738011
3461.655,0.0279613798935,0.0667045455083
3463.583,0.0274414557852,0.0666811561626
3465.512,0.0269311128253,0.0675624684948
3467.44,0.0264308801408,0.0668229356885
3469.369,0.0259402388181,0.0682470653363
3471.297,0.0254596975574,0.0686255142085
3473.226,0.0249887578719,0.0696342078615
3475.154,0.0245279080349,0.0689361574659
3477.083,0.0240766699866,0.0701945318733
3479.011,0.0236355115735,0.0705361249372
3480.94,0.0232039751623,0.0696621928353
3482.868,0.022782508173,0.0677769783327
3484.797,0.022370673399,0.0707552742408
3486.725,0.0219688978334,0.0701593746825
3488.654,0.0215767646966,0.0687532666386
3490.582,0.0211946805549,0.0683827984707
3492.511,0.0208222490553,0.0692121186795
3494.439,0.0204598563373,0.0679137411559
3496.368,0.0201071264749,0.0673223691281
3498.296,0.0197644251807,0.0666593087726
3500.225,0.0194313969555,0.0670105316809
3502.153,0.0191083870851,0.0648444078204
3504.082,0.018795060497,0.0645472017086
3506.01,0.0184917420504,0.0657956328611
3507.939,0.0181981170996,0.0679183288723
3509.867,0.0179144900767,0.0678375568251
3511.796,0.0176405667631,0.0706390248674
3513.724,0.017376631164,0.0698269471236
3515.653,0.0171224094875,0.0678189632002
3517.581,0.0168781653123,0.0652864965698
3519.51,0.016643645273,0.065056546782
3521.438,0.0164190925216,0.065197201828
3523.367,0.0162042741194,0.0649450233636
3525.295,0.0159994127918,0.0640147386284
3527.224,0.0158042960268,0.0638434346919
3529.152,0.015619126123,0.0624982295831
3531.081,0.0154437109952,0.063059776319
3533.009,0.0152782325152,0.0639803341481
3534.938,0.0151225190246,0.0655799979066
3536.866,0.0149767319683,0.0618892338661
3538.795,0.0148407201149,0.0627863899629
3540.723,0.0147146244824,0.063903590417
3542.652,0.0145983142662,0.0642048799115
3544.58,0.0144919100575,0.0597818188417
3546.509,0.0143953014785,0.0565856951858
3548.437,0.0143085886936,0.0575017822758
3550.366,0.0142316817518,0.0617740798979
3552.294,0.0141646603907,0.0592716076777
3554.223,0.014107455086,0.0630046443783
3556.151,0.0140601251487,0.0685477794303
3558.08,0.0140226214812,0.0744374007567
3560.008,0.0139949829677,0.0788469254524
3561.937,0.0139771809374,0.0835377285946
3563.865,0.0139692338477,0.0870087303695
3565.794,0.0139711334546,0.0820664688905
3567.722,0.0139828777886,0.066104052364
3569.651,0.0140044790327,0.0692513584281
3571.579,0.0140359147905,0.0736048412996
3573.508,0.0140772176718,0.072515827916
3575.436,0.0141283448534,0.0669395819635
3577.365,0.0141893493719,0.0628737255295
3579.293,0.0142601679773,0.0593499603963
3581.222,0.014340874133,0.0588073114528
3583.15,0.0144313841622,0.0609239175663
3585.079,0.014531791955,0.0634395008783
3587.007,0.014641993408,0.0565123581537
3588.936,0.014762102838,0.0602626621473
3590.864,0.0148919957148,0.0764225701398
3592.793,0.015031806782,0.0896351294355
3594.721,0.0151813910826,0.102863185891
3596.65,0.015340903787,0.121253152617
3598.578,0.0155101795113,0.127037581532
3600.507,0.0156893938529,0.111446459781
3602.435,0.0158783610011,0.0839007757623
3604.364,0.0160772769798,0.0663426158737
3606.292,0.0162859355518,0.0533102435648
3608.221,0.0165045531677,0.0409608263936
3610.149,0.0167329031635,0.0357446061866
3612.078,0.0169712224166,0.0343903463694
3614.006,0.0172192638361,0.025410373281
3615.935,0.0174772847264,0.0316609948652
3617.863,0.0177450175697,0.0292038351544
3619.792,0.0180227400972,0.018847774408
3621.72,0.0183101643643,0.0232368891078
3623.649,0.018607588529,0.0321899450806
3625.577,0.0189147042199,0.0318019641314
3627.506,0.0192318300218,0.0238663201854
3629.434,0.0195586371365,-0.00064172618935
3631.363,0.0198954645755,0.0158960041397
3633.291,0.020241963114,0.0260352025587
3635.22,0.0205984921902,0.0261618434006
3637.148,0.0209646821525,0.0292895380031
3639.077,0.0213409128659,0.0305897451751
3641.005,0.021726794252,0.0298232916673
3642.934,0.0221227266026,0.0292034636329
3644.862,0.0225282994125,0.0309681121917
3646.791,0.0229439334003,0.0212241652554
3648.719,0.0233691976339,-0.00051111616215
3650.648,0.0238045332589,-0.00513982083595
3652.576,0.0242494889163,0.0103108062419
3654.505,0.0247045261785,0.0211809483995
3656.433,0.0251691732597,0.0120525997111
3658.362,0.025643912159,0.0166839964632
3660.29,0.026128250664,0.0227694547842
3662.219,0.0266226912006,0.0259958269436
3664.147,0.0271267211294,0.0266415999057
3666.076,0.0276408633031,0.0273151662127
3668.004,0.0281645846557,0.0209812760539
3669.933,0.0286984284666,0.00191513668048
3671.861,0.029241841243,0.00224102543042
3673.79,0.0297953866911,0.0102854785672
3675.718,0.0303584908912,-0.0181154907902
3677.647,0.0309317379765,-0.00528481591039
3679.575,0.0315145336005,0.0064319942475
3681.504,0.0321074823229,0.0109305243485
3683.432,0.0327099693707,0.0152845722244
3685.361,0.0333226197303,0.0148528578801
3687.289,0.0339447982019,0.00582877907499
3689.218,0.0345771501987,-0.0115891789059
3691.146,0.035219020094,-0.0111651436157
3693.075,0.035871073728,-0.00209769861432
3695.003,0.0365326350472,0.00533080374794
3696.932,0.0372043903184,0.00554098519969
3698.86,0.0378856430613,0.00485973245676
