wavenumber (/cm),baseline value (/cm),baseline-subtracted absorbance (/cm),
3.199378999999999905e+03,1.957192459314498478e-01,-2.684271707250829309e-03
3.201307999999999993e+03,1.936812067366240342e-01,-1.339146694169679463e-03
3.203235999999999876e+03,1.916547730451085840e-01,-8.820044208288635446e-04
3.205164999999999964e+03,1.896378427472633632e-01,-1.251104649618639542e-03
3.207092999999999847e+03,1.876325070098125991e-01,-1.055129065811843958e-03
3.209021000000000186e+03,1.856377175143641978e-01,1.284808076817967049e-04
3.210949999999999818e+03,1.836524478255583404e-01,7.173085678513491104e-04
3.212878000000000156e+03,1.816787562841746251e-01,3.105290691056694641e-04
3.214806999999999789e+03,1.797145954923493605e-01,6.033060541987822489e-04
3.216735999999999876e+03,1.777609918854565763e-01,2.788386462870384719e-03
3.218664000000000215e+03,1.758189500101856595e-01,2.847784044196055575e-03
3.220592999999999847e+03,1.738864553002770208e-01,2.555473336132374484e-03
3.222521000000000186e+03,1.719655113790672374e-01,1.638046692296279971e-03
3.224449000000000069e+03,1.700551136998704749e-01,1.380244634305194396e-03
3.226378000000000156e+03,1.681542795989976469e-01,2.268241375428692308e-03
3.228306000000000040e+03,1.662649798738549123e-01,4.188370980284350509e-03
3.230235000000000127e+03,1.643852546699662298e-01,4.258736030528842420e-03
3.232164000000000215e+03,1.625160866510100277e-01,4.445906677606137336e-03
3.234092000000000098e+03,1.606584365919871971e-01,5.885079025115924622e-03
3.236021000000000186e+03,1.588103774700080351e-01,7.354082248985260861e-03
3.237949000000000069e+03,1.569738253650463378e-01,6.273925569958205273e-03
3.239876999999999953e+03,1.551478195020941087e-01,6.134905657109390731e-03
3.241806000000000040e+03,1.533314209891543101e-01,6.395153356342442308e-03
3.243733999999999924e+03,1.515265130802596616e-01,7.756818568380730028e-03
3.245663000000000011e+03,1.497312234643040085e-01,7.828161959733348496e-03
3.247592000000000098e+03,1.479464910332808358e-01,6.999430325255184826e-03
3.249519999999999982e+03,1.461732327905025386e-01,8.299121399328646120e-03
3.251447999999999865e+03,1.444105207897301568e-01,9.972376208147171184e-03
3.253376999999999953e+03,1.426574489677427948e-01,1.017687833439007150e-02
3.255304999999999836e+03,1.409158349210350991e-01,1.139741687316275787e-02
3.257233999999999924e+03,1.391838719960283299e-01,1.210239101822430108e-02
3.259161999999999807e+03,1.374633559033817676e-01,1.181441625875301327e-02
3.261090999999999894e+03,1.357525018753626966e-01,1.125497816102649651e-02
3.263019999999999982e+03,1.340522050322725534e-01,1.278040388312207121e-02
3.264947999999999865e+03,1.323633386057387895e-01,1.420847985175655026e-02
3.266876000000000204e+03,1.306850184212144939e-01,1.510341784685387267e-02
3.268804999999999836e+03,1.290163821871601613e-01,1.512846770670384089e-02
3.270733000000000175e+03,1.273591599566969990e-01,1.623378454951951433e-02
3.272661999999999807e+03,1.257116326196268119e-01,1.681186884605612164e-02
3.274590999999999894e+03,1.240746624674891052e-01,1.673247389155263498e-02
3.276518999999999778e+03,1.224490899031387414e-01,1.551563262794375397e-02
3.278447999999999865e+03,1.208332286479816275e-01,1.743524400945295483e-02
3.280376000000000204e+03,1.192287540376959498e-01,1.918679230820519166e-02
3.282304000000000087e+03,1.176348256694161876e-01,1.958896893282791041e-02
3.284233000000000175e+03,1.160506250232948844e-01,1.848439974169036049e-02
3.286161000000000058e+03,1.144777946090798082e-01,1.984243181364320208e-02
3.288090000000000146e+03,1.129147028599426505e-01,2.187807991575740907e-02
3.290018999999999778e+03,1.113621682957379733e-01,2.211756484890980978e-02
3.291947000000000116e+03,1.098209875476321429e-01,2.182916912880550342e-02
3.293875000000000000e+03,1.082903530415393334e-01,2.371662158698595313e-02
3.295804000000000087e+03,1.067694790863704668e-01,2.502775127853396064e-02
3.297731999999999971e+03,1.052599425343352380e-01,2.652414722610130227e-02
3.299661000000000058e+03,1.037601774761505169e-01,2.515521724739122611e-02
3.301588999999999942e+03,1.022717388781799741e-01,2.440874227010647601e-02
3.303518000000000029e+03,1.007930827169793986e-01,2.518639772373632013e-02
3.305447000000000116e+03,9.932498374070775071e-02,2.734791628961663612e-02
3.307375000000000000e+03,9.786819480884645372e-02,2.728797622117484778e-02
3.309302999999999884e+03,9.642195211899817764e-02,2.727763344655320665e-02
3.311231999999999971e+03,9.498551375176589318e-02,2.740051677486921022e-02
3.313159999999999854e+03,9.356036901597519773e-02,2.718258054431998971e-02
3.315088999999999942e+03,9.214503954572705879e-02,2.731063618458740017e-02
3.317016999999999825e+03,9.074099276400104941e-02,2.877027783136920647e-02
3.318945999999999913e+03,8.934677219073350329e-02,2.851232009674253831e-02
3.320875000000000000e+03,8.796310880239488483e-02,2.914848525400848267e-02
3.322802999999999884e+03,8.659071168678167396e-02,3.114405026611422045e-02
3.324731000000000222e+03,8.522886081317793128e-02,3.229211361318395923e-02
3.326659999999999854e+03,8.387685803387867622e-02,3.169728529979165543e-02
3.328588000000000193e+03,8.253610511433606689e-02,3.206664430444483571e-02
3.330516999999999825e+03,8.120521123202095737e-02,3.191214447403400989e-02
3.332445000000000164e+03,7.988555626653592867e-02,3.158012653948838455e-02
3.334373999999999796e+03,7.857577128120496468e-02,3.365206658395236694e-02
3.336302000000000135e+03,7.727721426978462205e-02,3.531451725755818671e-02
3.338231000000000222e+03,7.598853818143780359e-02,3.470841926322010274e-02
3.340159000000000106e+03,7.471107912407504159e-02,3.522069081426515424e-02
3.342088000000000193e+03,7.344351193271236866e-02,3.538495263819640968e-02
3.344016000000000076e+03,7.218715082941429273e-02,3.622687929289458708e-02
3.345945000000000164e+03,7.094069253503221262e-02,3.670966630455119173e-02
3.347873000000000047e+03,6.970542938579527004e-02,3.648531154213352501e-02
3.349802000000000135e+03,6.848007998839733546e-02,3.610447474727407347e-02
3.351730000000000018e+03,6.726591479322507894e-02,3.676420751547793131e-02
3.353659000000000106e+03,6.606167429280773717e-02,3.559252564654347140e-02
3.355586999999999989e+03,6.486860705169661401e-02,3.490193777798089592e-02
3.357516000000000076e+03,6.368547544826341777e-02,3.576261916408873809e-02
3.359443999999999960e+03,6.251350616121342796e-02,3.738844471314206608e-02
3.361373000000000047e+03,6.135148345476437726e-02,3.834779886606853871e-02
3.363302000000000135e+03,6.020001793324780692e-02,4.010474300883259957e-02
3.365230000000000018e+03,5.905969831231061562e-02,4.003157834795412207e-02
3.367157999999999902e+03,5.792992493337933979e-02,3.963704160862002723e-02
3.369086999999999989e+03,5.681012002089858015e-02,3.936040459246425982e-02
3.371014999999999873e+03,5.570144459603199039e-02,3.993688553638485850e-02
3.372943999999999960e+03,5.460274858053537628e-02,4.013898800088577801e-02
3.374871999999999844e+03,5.351517110972991986e-02,4.064888428297175338e-02
3.376800999999999931e+03,5.243758399121745128e-02,4.016476110127187304e-02
3.378728999999999814e+03,5.137110447447312822e-02,4.057774824967519400e-02
3.380657999999999902e+03,5.031462625294125246e-02,3.971771985036398611e-02
3.382585999999999785e+03,4.926924469025806275e-02,4.029003965220612216e-02
3.384514999999999873e+03,4.823387536571033252e-02,4.094938552582916280e-02
3.386443000000000211e+03,4.720959175709182887e-02,4.185338206278066409e-02
3.388371999999999844e+03,4.619533132952824417e-02,4.262858457060336725e-02
3.390300000000000182e+03,4.519214567496732116e-02,4.254463790938523005e-02
3.392228999999999814e+03,4.419899414438788199e-02,4.166070463252480316e-02
3.394157000000000153e+03,4.321690644388453961e-02,4.292986399986342683e-02
3.396085999999999785e+03,4.224486381028924598e-02,4.424255153389333728e-02
3.398014000000000124e+03,4.128387406385414238e-02,4.463950610394107343e-02
3.399943000000000211e+03,4.033294032724299427e-02,4.397364008314830208e-02
3.401871000000000095e+03,3.939304853486547131e-02,4.518998997721368482e-02
3.403800000000000182e+03,3.846322369523846874e-02,4.563310704366774218e-02
3.405728000000000065e+03,3.754442985692207913e-02,4.655291169771258453e-02
3.407657000000000153e+03,3.663571391427922208e-02,4.768451250844374378e-02
3.409585000000000036e+03,3.573801803002396582e-02,4.854177576356732970e-02
3.411514000000000124e+03,3.485041098436170159e-02,4.812037644109068424e-02
3.413442000000000007e+03,3.397381305417113140e-02,4.766219220207057461e-02
3.415371000000000095e+03,3.310731490549301270e-02,4.651261838066900189e-02
3.417298999999999978e+03,3.225181492936002314e-02,4.631838622297013153e-02
3.419228000000000065e+03,3.140642567766604998e-02,4.760196409287886787e-02
3.421155999999999949e+03,3.057202365559774648e-02,4.852936116194994653e-02
3.423085000000000036e+03,2.974774330088436614e-02,4.733352628367026860e-02
3.425012999999999920e+03,2.893443923287719599e-02,4.894335314557252126e-02
3.426942000000000007e+03,2.813126777515151389e-02,5.001085291624618456e-02
3.428869999999999891e+03,2.733906166120547709e-02,5.086320256602583356e-02
3.430798999999999978e+03,2.655699910046038781e-02,5.161342443132976854e-02
3.432726999999999862e+03,2.578589094057548436e-02,5.118418891386711245e-02
3.434655999999999949e+03,2.502493727681809332e-02,5.172731178817735476e-02
3.436583999999999833e+03,2.427492707099432323e-02,5.310554396913480524e-02
3.438512999999999920e+03,2.353508230421397229e-02,5.224577284589204673e-02
3.440440999999999804e+03,2.280617005245133555e-02,5.144936416366108212e-02
3.442369999999999891e+03,2.208743418266223557e-02,5.020711752056228327e-02
3.444297999999999774e+03,2.137961988495717947e-02,5.095233200021409559e-02
3.446226999999999862e+03,2.068199291214867230e-02,4.990832347317408768e-02
3.448155000000000200e+03,1.999527656851185498e-02,4.996782865740545532e-02
3.450083999999999833e+03,1.931875849268394063e-02,5.174360883775164233e-02
3.452012000000000171e+03,1.865314010310470394e-02,5.235666480945955215e-02
3.453940999999999804e+03,1.799773092426448784e-02,5.164848357083284824e-02
3.455869000000000142e+03,1.735321048874638450e-02,5.184622345444589442e-02
3.457797999999999774e+03,1.671891020689031393e-02,5.291719613092404906e-02
3.459726000000000113e+03,1.609548772542979123e-02,5.408848073711958193e-02
3.461655000000000200e+03,1.548229634055786619e-02,5.333656548093212990e-02
3.463583000000000084e+03,1.487997181316202955e-02,5.289067409808811959e-02
3.465512000000000171e+03,1.428788932527069733e-02,5.302586787679142155e-02
3.467440000000000055e+03,1.370666275193954675e-02,5.387950928889728708e-02
3.469369000000000142e+03,1.313568916103236006e-02,5.414976520063752297e-02
3.471297000000000025e+03,1.257556054175879012e-02,5.455624982921047916e-02
3.473226000000000113e+03,1.202569584783574896e-02,5.284138188389375657e-02
3.475153999999999996e+03,1.148666518262331238e-02,5.264858196182209404e-02
3.477083000000000084e+03,1.095790938568441675e-02,5.518532320301439142e-02
3.479010999999999967e+03,1.043997667453311351e-02,5.673277173343205249e-02
3.480940000000000055e+03,9.932329774578363413e-03,5.529156590923833825e-02
3.482867999999999938e+03,9.435495017491746239e-03,5.556955906114979804e-02
3.484797000000000025e+03,8.948957014517588959e-03,5.706994523960151611e-02
3.486724999999999909e+03,8.473220211488552422e-03,5.716005584228689429e-02
3.488653999999999996e+03,8.007791105502093387e-03,5.663589635027466151e-02
3.490581999999999880e+03,7.553152256537742915e-03,5.657552458567405296e-02
3.492510999999999967e+03,7.108832047528323983e-03,5.639516067459848792e-02
3.494438999999999851e+03,6.675291152625106861e-03,5.483486754544419917e-02
3.496367999999999938e+03,6.252079840603386174e-03,5.369990641230271144e-02
3.498295999999999822e+03,5.839636899761302402e-03,5.730955950173455271e-02
3.500224999999999909e+03,5.437534484723727246e-03,5.612215418403176947e-02
3.502152999999999793e+03,5.046189497942776825e-03,5.467735240036919464e-02
3.504081999999999880e+03,4.665195979889347200e-03,5.563754333073434033e-02
3.506010000000000218e+03,4.294948947165977415e-03,5.842566158553386124e-02
3.507938999999999851e+03,3.935064326096693321e-03,5.801985329242165257e-02
3.509867000000000189e+03,3.585915247438009601e-03,5.816835544901399757e-02
3.511795999999999822e+03,3.247139523349318324e-03,6.033620223344837719e-02
3.513724000000000160e+03,2.919088398751767954e-03,5.891200429305043507e-02
3.515652999999999793e+03,2.601421571647222208e-03,5.659245288503944593e-02
3.517581000000000131e+03,2.294468401114357903e-03,5.564296210530428333e-02
3.519510000000000218e+03,1.997910470990404974e-03,5.358634101996262444e-02
3.521438000000000102e+03,1.712055254518674019e-03,5.348505381249823998e-02
3.523367000000000189e+03,1.436606221382419335e-03,5.239236375739042550e-02
3.525295000000000073e+03,1.171848958968269017e-03,5.340714629019793769e-02
3.527224000000000160e+03,9.175088228126071499e-04,5.358011576022603251e-02
3.529152000000000044e+03,6.738495144631428957e-04,5.582923347350798871e-02
3.531081000000000131e+03,4.406182752951792736e-04,5.705104249494619140e-02
3.533009000000000015e+03,2.180569210032956562e-04,5.654783815632380417e-02
3.534938000000000102e+03,5.934578815924851369e-06,5.621917408387488990e-02
3.536865999999999985e+03,-1.955288214112727019e-04,5.656922739616110363e-02
3.538795000000000073e+03,-3.865422666144979758e-04,5.677590848515290389e-02
3.540722999999999956e+03,-5.669077127841148922e-04,5.624364884287591515e-02
3.542652000000000044e+03,-7.368122610031946351e-04,5.500649789731149042e-02
3.544579999999999927e+03,-8.960797531081254874e-04,5.444202132795905591e-02
3.546509000000000015e+03,-1.044875404343059699e-03,5.163620260539425466e-02
3.548436999999999898e+03,-1.183044942390409915e-03,5.305457026332427439e-02
3.550365999999999985e+03,-1.310731696641198596e-03,5.399747990244319062e-02
3.552293999999999869e+03,-1.427803280623862747e-03,5.360156250431735714e-02
3.554222999999999956e+03,-1.534381137890505897e-03,5.751436698647038881e-02
3.556150999999999840e+03,-1.630354767815589412e-03,6.218428178692003705e-02
3.558079999999999927e+03,-1.715823728098087031e-03,6.519100820196865875e-02
3.560007999999999811e+03,-1.790699403958484481e-03,6.746541890259383223e-02
3.561936999999999898e+03,-1.855059467256836570e-03,6.864622493779148904e-02
3.563864999999999782e+03,-1.908837189059653383e-03,6.878945985154816256e-02
3.565793999999999869e+03,-1.952088355377412654e-03,6.400657132313236630e-02
3.567722000000000207e+03,-1.984768123115543403e-03,5.607553937551634782e-02
3.569650999999999840e+03,-2.006910392449157143e-03,5.704380516653184685e-02
3.571579000000000178e+03,-2.018492206126154542e-03,5.879904411151382071e-02
3.573507999999999811e+03,-2.019525578475622751e-03,5.722674280277550984e-02
3.575436000000000149e+03,-2.010009438091486800e-03,5.618973247458192155e-02
3.577364999999999782e+03,-1.989933913456809478e-03,5.418946893822162991e-02
3.579293000000000120e+03,-1.959319819011540176e-03,5.293778944399885056e-02
3.581222000000000207e+03,-1.918135397392717323e-03,5.354757035140056409e-02
3.583150000000000091e+03,-1.866423348886314670e-03,5.469670738810616939e-02
3.585079000000000178e+03,-1.804130030286899000e-03,5.571447067518731089e-02
3.587007000000000062e+03,-1.731320027715810284e-03,5.699766997212085684e-02
3.588936000000000149e+03,-1.647917812135801796e-03,6.065378054336001412e-02
3.590864000000000033e+03,-1.554009855503579729e-03,6.989475583751114662e-02
3.592793000000000120e+03,-1.449498742935872997e-03,7.804406055431756251e-02
3.594721000000000004e+03,-1.334492832242517579e-03,9.207289372176030717e-02
3.596650000000000091e+03,-1.208872822694218030e-03,1.065404203815742967e-01
3.598577999999999975e+03,-1.072768957939729262e-03,1.103207220560900037e-01
3.600507000000000062e+03,-9.260400514037314679e-04,9.663563269266517430e-02
3.602434999999999945e+03,-7.688382325881093493e-04,7.566573502830209463e-02
3.604364000000000033e+03,-6.010004290715187381e-04,6.067630620082931081e-02
3.606291999999999916e+03,-4.227006561947632690e-04,5.100947918646858703e-02
3.608221000000000004e+03,-2.337539556940271268e-04,4.390503668085288247e-02
3.610148999999999887e+03,-3.435622875969102097e-05,4.390123179734328751e-02
3.612077999999999975e+03,1.756993687287433659e-04,4.316605742900692100e-02
3.614005999999999858e+03,3.961950497277655359e-04,3.730015590549307092e-02
3.615934999999999945e+03,6.273595441967927400e-04,3.346442252393200256e-02
3.617862999999999829e+03,8.689531792533955468e-04,3.129318166356465092e-02
3.619791999999999916e+03,1.121226570706568282e-03,2.890252759890810097e-02
3.621719999999999800e+03,1.383918159831409866e-03,3.164852902504677878e-02
3.623648999999999887e+03,1.657300448268728132e-03,3.159600997324130134e-02
3.625577000000000226e+03,1.941089991447597640e-03,3.081338286814983007e-02
3.627505999999999858e+03,2.235581176869061437e-03,2.853718744741073898e-02
3.629434000000000196e+03,2.540468674112617009e-03,2.258082921328252723e-02
3.631362999999999829e+03,2.856068756518226337e-03,2.684422438004285816e-02
3.633291000000000167e+03,3.182054207822915259e-03,2.939855834650839661e-02
3.635219999999999800e+03,3.518763187209117405e-03,3.018486564125533178e-02
3.637148000000000138e+03,3.865846592574939677e-03,3.079047605980522739e-02
3.639077000000000226e+03,4.223664468945287354e-03,3.081777897591475579e-02
3.641005000000000109e+03,4.591845828372242977e-03,3.315908917617638174e-02
3.642934000000000196e+03,4.970772601730288898e-03,3.145700461448330820e-02
3.644862000000000080e+03,5.360051915214825158e-03,2.850682365336876245e-02
3.646791000000000167e+03,5.760087585553463896e-03,2.070003573396550500e-02
3.648719000000000051e+03,6.170464853106238934e-03,1.175230882525224452e-02
3.650648000000000138e+03,6.591609420429023203e-03,1.213830061697129814e-02
3.652576000000000022e+03,7.023084642039378878e-03,2.324326530236553445e-02
3.654505000000000109e+03,7.465338106346308678e-03,2.585114829818224713e-02
3.656432999999999993e+03,7.917911282017797703e-03,2.307875302607875767e-02
3.658362000000000080e+03,8.381273643308873034e-03,2.348418678325536746e-02
3.660289999999999964e+03,8.854944773041495409e-03,2.334661188317999070e-02
3.662219000000000051e+03,9.339416031313163558e-03,2.300365482686950180e-02
3.664146999999999935e+03,9.834185115110471997e-03,2.352576636573444624e-02
3.666076000000000022e+03,1.033976527036628568e-02,2.024296999699437549e-02
3.668003999999999905e+03,1.085563230822472747e-02,1.518803493123743742e-02
3.669932999999999993e+03,1.138232136046468668e-02,8.881501544619752053e-03
3.671860999999999876e+03,1.191928635238426182e-02,1.316309512947166915e-02
3.673789999999999964e+03,1.246708430160481385e-02,1.249096684567074789e-02
3.675717999999999847e+03,1.302514724758552234e-02,2.418095449270962760e-03
3.677646999999999935e+03,1.359405409379377261e-02,6.678866152845408521e-03
3.679574999999999818e+03,1.417321499383561445e-02,1.089501506782419860e-02
3.681503999999999905e+03,1.476323073702445754e-02,1.291037686430973608e-02
3.683431999999999789e+03,1.536348959112743273e-02,1.456474249216377359e-02
3.685360999999999876e+03,1.597461423130042135e-02,1.039756811985714791e-02
3.687289000000000215e+03,1.659597103946452989e-02,4.364303902413491087e-03
3.689217999999999847e+03,1.722820457662166405e-02,-1.189591415800883567e-03
3.691146000000000186e+03,1.787065933885045865e-02,1.123073603634283657e-03
3.693074999999999818e+03,1.852400177299173833e-02,2.301834677023162357e-03
3.695003000000000156e+03,1.918755448927456086e-02,4.233045935267965021e-03
3.696931999999999789e+03,1.986200582039998608e-02,4.733162480418995344e-03
3.698860000000000127e+03,2.054665649075104739e-02,4.731823242393629059e-03
