baseline wavenumber (cm-1),baseline absorbance (cm-1),baseline-subtracted absorbance (cm-1)
3199.379,0.180647932882,1.37667655054e-14
3201.308,0.178812922189,-0.00427688660857
3203.236,0.176988708484,-0.0012695130936
3205.165,0.175173399429,0.0035110239007
3207.093,0.173368877148,0.00406516712602
3209.021,0.171574198026,0.00385489325096
3210.95,0.169788438872,0.00382977602731
3212.878,0.168013451174,0.00893439073452
3214.807,0.166247393657,0.0127847502827
3216.736,0.164491189514,0.0090582899162
3218.664,0.162745741504,0.00598720098073
3220.593,0.161009238997,0.0041494590721
3222.521,0.159283482411,0.00367669144911
3224.449,0.157567568984,0.00485485090851
3226.378,0.155860616379,0.00692215932049
3228.306,0.154164394376,0.00360726235053
3230.235,0.152477143409,0.0034957667297
3232.164,0.150799745814,0.00641090818405
3234.092,0.149133063499,0.0103377744672
3236.021,0.147475367541,0.00853898604217
3237.949,0.14582837665,0.00769785401787
3239.877,0.144191228919,0.00897414053456
3241.806,0.142563082862,0.00648119086642
3243.734,0.140945626555,0.00919487683164
3245.663,0.139337182136,0.0109231029144
3247.592,0.137738591089,0.0119485614427
3249.52,0.13615067447,0.0145831777489
3251.448,0.13457260101,0.0141699442245
3253.377,0.133003559865,0.0138265220111
3255.305,0.131445177828,0.0138277424182
3257.234,0.129895838321,0.0141726949853
3259.162,0.128357147708,0.0173443584071
3261.091,0.126827509838,0.0186576817114
3263.02,0.125307725341,0.0152649017695
3264.948,0.123798574416,0.0123011930962
3266.876,0.122299266651,0.0159565708098
3268.805,0.120809032055,0.0173174209923
3270.733,0.119329415714,0.0187621641911
3272.662,0.117858882755,0.0197141486811
3274.591,0.116398203169,0.0192790433687
3276.519,0.114948126516,0.0181874238729
3278.448,0.113507148567,0.0247173536058
3280.376,0.112076763338,0.0268118447685
3282.304,0.110656221268,0.0205542305664
3284.233,0.109244793221,0.0155580977118
3286.161,0.107843942575,0.0160820657137
3288.09,0.106452216165,0.0158266678944
3290.019,0.105070343128,0.0165141105263
3291.947,0.10369903217,0.0189437455517
3293.875,0.102337564371,0.0192564920322
3295.804,0.100985241236,0.0185684836201
3297.732,0.099643464861,0.0219895079481
3299.661,0.0983108433627,0.0219817877907
3301.589,0.0969887584116,0.0195325192595
3303.518,0.0956758385505,0.0147906529081
3305.447,0.0943727720619,0.0163732099455
3307.375,0.0930802267993,0.0207856379536
3309.303,0.0917975246958,0.0204833809951
3311.232,0.090524008109,0.0162509843098
3313.16,0.0892609974294,0.0205767666462
3315.089,0.0880071824798,0.0241109818789
3317.017,0.0867638632239,0.0230167897631
3318.946,0.0855297499115,0.0255366606819
3320.875,0.0843054899717,0.0269726865167
3322.803,0.0830917104042,0.0271695854616
3324.731,0.0818877739959,0.0251257709349
3326.66,0.0806930639578,0.025430963132
3328.588,0.0795088189733,0.0270149857371
3330.517,0.0783338105725,0.0238717893466
3332.445,0.0771692570118,0.0225982553707
3334.374,0.0760139502481,0.0282582624275
3336.302,0.0748690881112,0.0322162247363
3338.231,0.0737334829847,0.0277822351999
3340.159,0.0726083122716,0.0269509720709
3342.088,0.0714924087823,0.0294527039237
3344.016,0.0703869294929,0.0309999096863
3345.945,0.0692907276408,0.0292289327251
3347.873,0.0682049397753,0.0283628354193
3349.802,0.0671284395603,0.0283026733478
3351.73,0.0660623431186,0.0315900373525
3353.659,0.0650055445408,0.0379339075971
3355.587,0.0639591395228,0.0412308938341
3357.516,0.0629220425823,0.0398066544762
3359.444,0.0618953289881,0.0381956444274
3361.373,0.0608779336847,0.0388825029877
3363.302,0.059870391754,0.0353272227209
3365.23,0.0588732178481,0.0327006222408
3367.158,0.0578858871016,0.0360952106443
3369.087,0.0569078950725,0.039180248059
3371.015,0.0559402557497,0.0373231628291
3372.944,0.0549819653579,0.0350812106251
3374.872,0.0540340174589,0.0376560664388
3376.801,0.0530954287043,0.0349582456109
3378.729,0.052167172229,0.0312175442372
3380.658,0.0512482851116,0.0340579920541
3382.586,0.0503397200601,0.0369674668397
3384.515,0.0494405345799,0.0348144942284
3386.443,0.0485516609522,0.035312687577
3388.372,0.0476721771091,0.0396592693682
3390.3,0.0468029949053,0.0378341222483
3392.229,0.0459432126994,0.0365984834494
3394.157,0.0450937219193,0.0409827968313
3396.086,0.0442536413506,0.0436620566177
3398.014,0.0434238419943,0.0404026009451
3399.943,0.0426034630628,0.0382547194905
3401.871,0.0417933551303,0.0417743189827
3403.8,0.040992677836,0.0456337246708
3405.728,0.0402022613273,0.041898719164
3407.657,0.0394212856701,0.0402441343238
3409.585,0.0386505605852,0.0441979181371
3411.514,0.0378892865652,0.04573701486
3413.442,0.0371382529041,0.0450223657151
3415.371,0.0363966805213,0.0406633619329
3417.299,0.035665338284,0.0401872847828
3419.228,0.0349434675384,0.043064720069
3421.156,0.0342318167249,0.0482770279127
3423.085,0.0335296476165,0.0463854438624
3425.013,0.0328376882267,0.043275725298
3426.942,0.0321552207555,0.0443281513258
3428.87,0.0314829527895,0.0453233749169
3430.799,0.0308201869555,0.046659344026
3432.727,0.0301676104133,0.0500426392582
3434.656,0.0295245462165,0.0506543681674
3436.584,0.0288916610981,0.0519746079811
3438.513,0.0282682985384,0.0499915821853
3440.441,0.0276551048438,0.0521139237622
3442.37,0.0270514439213,0.0579157045675
3444.298,0.0264579416506,0.0609882324119
3446.227,0.0258739823652,0.0606543710159
3448.155,0.0253001715182,0.0552173661346
3450.084,0.0247359138701,0.0467039931348
3452.012,0.0241817944469,0.0504159008932
3453.941,0.023637238436,0.0522730011274
3455.869,0.0231028104366,0.0510440610888
3457.798,0.0225779560628,0.0534828950441
3459.726,0.0220632194872,0.0554410764797
3461.655,0.0215580667506,0.0583944249102
3463.583,0.0210630215988,0.0624323791897
3465.512,0.0205775704994,0.0668943793642
3467.44,0.0201022167713,0.0681399746772
3469.369,0.0196364673091,0.060329670364
3471.297,0.0191808050049,0.0656549374393
3473.226,0.0187347571798,0.0740768267684
3475.154,0.0182987862994,0.0742464477045
3477.083,0.0178724401115,0.0737782219728
3479.011,0.0174561606549,0.0849435158841
3480.94,0.0170495161042,0.0895960919014
3482.868,0.0166529280713,0.0911222665107
3484.797,0.0162659851579,0.0877924399912
3486.725,0.0158890885488,0.0871009043755
3488.654,0.0155218472725,0.0912253477139
3490.582,0.0151646420872,0.08751705204
3492.511,0.0148171024481,0.0806231078016
3494.439,0.0144795886866,0.084029963522
3496.368,0.0141517506847,0.0862217457269
3498.296,0.013833928347,0.080091069126
3500.225,0.0135257919822,0.0775911593975
3502.153,0.0132276610683,0.0882152783838
3504.082,0.0129392263408,0.0933995990914
3506.01,0.0126607868506,0.0891601976839
3507.939,0.0123920537603,0.092521521495
3509.867,0.0121333056939,0.106047225995
3511.796,0.0118842742408,0.1072186268
3513.724,0.0116452175982,0.107174655039
3515.653,0.0114158877822,0.114007644008
3517.581,0.0111965225634,0.125076094438
3519.51,0.0109868943846,0.133577444036
3521.438,0.0107872205897,0.138838272183
3523.367,0.010597294048,0.147536740118
3525.295,0.0104173116769,0.154513447446
3527.224,0.0102470867724,0.150723801735
3529.152,0.010086795825,0.141654334267
3531.081,0.00993627255778,0.133423173515
3533.009,0.00979567303418,0.127065744129
3534.938,0.00966485140411,0.1184909153
3536.866,0.00954394330431,0.111585137864
3538.795,0.00943282331142,0.114940976345
3540.723,0.0093316066354,0.120823048171
3542.652,0.0092401882797,0.114651452274
3544.58,0.00915866302747,0.116315914957
3546.509,0.00908694630896,0.113701388878
3548.437,0.00902511248053,0.102753417793
3550.366,0.00897309739919,0.0985094660295
3552.294,0.00893095499455,0.106031644824
3554.223,0.0088986415504,0.107017157499
3556.151,0.00887619056954,0.113292009168
3558.08,0.00886357876258,0.136125302264
3560.008,0.00886081920552,0.166018893723
3561.937,0.00886790903574,0.187490121895
3563.865,0.00888484090247,0.20054910229
3565.794,0.00891163236987,0.224046014451
3567.722,0.00894825566039,0.249361660442
3569.651,0.00899474876498,0.255525619172
3571.579,0.00905106347929,0.265792765491
3573.508,0.00911725822107,0.257086117903
3575.436,0.00919326435917,0.220663199807
3577.365,0.00927916073813,0.174616523079
3579.293,0.00937485830002,0.140944054062
3581.222,0.00948045631617,0.113412498298
3583.15,0.00959584530185,0.0918192967178
3585.079,0.00972114495518,0.0828210566015
3587.007,0.00985622536465,0.0927956496985
3588.936,0.0100012266552,0.0939470195796
3590.864,0.0101559984884,0.0951295569548
3592.793,0.0103207014161,0.11122079257
3594.721,0.0104951646732,0.122498871514
3596.65,0.0106795692381,0.135405541446
3598.578,0.0108737239189,0.143266577304
3600.507,0.011077830121,0.131246035238
3602.435,0.0112916762256,0.0991374150511
3604.364,0.0115154840649,0.0696575675878
3606.292,0.0117490215933,0.0597353613037
3608.221,0.0119925310697,0.0629700687483
3610.149,0.0122457600219,0.058007449318
3612.078,0.0125089711356,0.0527740572684
3614.006,0.0127818915116,0.056196679195
3615.935,0.0130648042624,0.0516142617439
3617.863,0.0133574160622,0.0518978149092
3619.792,0.0136600304502,0.0569975051811
3621.72,0.0139723336737,0.0482736988745
3623.649,0.0142946496989,0.0313371101313
3625.577,0.0146266443463,0.0292316392886
3627.506,0.0149686620087,0.0452976879357
3629.434,0.0153203480798,0.0657935708528
3631.363,0.0156820673794,0.0482024974645
3633.291,0.0160534448743,0.0399396815787
3635.22,0.0164348658111,0.0328327981938
3637.148,0.0168259347298,0.0270358867601
3639.077,0.0172270573037,0.0217242213782
3641.005,0.0176378176463,0.0150140574169
3642.934,0.0180586418574,0.0155590676342
3644.862,0.0184890936237,0.0195898510847
3646.791,0.018929619472,0.0314974501732
3648.719,0.0193797626621,0.0436360060633
3650.648,0.0198399901476,0.0392977840362
3652.576,0.0203098247615,0.0153537757641
3654.505,0.0207897538841,0.0080720676058
3656.433,0.0212792799218,0.0144672074935
3658.362,0.0217789106817,0.00709099733409
3660.29,0.0222881281432,0.00175462936214
3662.219,0.0228074605402,0.00204243332416
3664.147,0.0233363694255,-0.00104080690652
3666.076,0.0238754034597,-0.00111587652144
3668.004,0.0244240037688,0.00933370370117
3669.933,0.0249827394402,0.0299005113432
3671.861,0.025551031173,0.0216242442743
3673.79,0.0261294684816,0.023035092319
3675.718,0.0267174516382,0.0536474528397
3677.647,0.027315590584,0.0229548026233
3679.575,0.0279232651645,0.0060623812522
3681.504,0.0285411057474,0.00029039127069
3683.432,0.0291684717516,-0.0074703013281
3685.361,0.0298060139718,-0.00558484749042
3687.289,0.0304530713998,0.00736407203495
3689.218,0.0311103152571,0.0240584909695
3691.146,0.0317770641089,0.0214246947104
3693.075,0.0324540096034,0.00919867411233
3695.003,0.033140449879,0.00524022332424
3696.932,0.0338370970107,0.00569085204416
3698.86,0.0345432287101,0.00498472034476
