wavenumber (/cm),baseline value (/cm),baseline-subtracted absorbance (/cm),
3.199378999999999905e+03,1.851986758313799442e-01,-2.881886182133142071e-03
3.201307999999999993e+03,1.831904493349334473e-01,-1.593865892095092107e-03
3.203235999999999876e+03,1.811938128868000319e-01,-4.872526927235387717e-04
3.205164999999999964e+03,1.792066952873376806e-01,-7.299945898748827489e-04
3.207092999999999847e+03,1.772311567932618459e-01,-7.765929602487897654e-04
3.209021000000000186e+03,1.752661645411990321e-01,4.656660460848893734e-04
3.210949999999999818e+03,1.733107075507724915e-01,9.332022844648069082e-04
3.212878000000000156e+03,1.713668132527672583e-01,3.722952077604979593e-04
3.214806999999999789e+03,1.694324651593248632e-01,8.697687434346956792e-04
3.216735999999999876e+03,1.675086742508149484e-01,3.179691260152495147e-03
3.218664000000000215e+03,1.655964296189225138e-01,3.076369329829242716e-03
3.220592999999999847e+03,1.636937476073967446e-01,1.621121491966359685e-03
3.222521000000000186e+03,1.618026009295689960e-01,1.076202264608916437e-03
3.224449000000000069e+03,1.599220004937471629e-01,1.679637027732772125e-03
3.226378000000000156e+03,1.580509790912536516e-01,1.947504685154033410e-03
3.228306000000000040e+03,1.561914766094965046e-01,3.845418164586389409e-03
3.230235000000000127e+03,1.543415641039906916e-01,3.633771992239021031e-03
3.232164000000000215e+03,1.525022087834138063e-01,3.138142980459779352e-03
3.234092000000000098e+03,1.506743559677659050e-01,4.301384454755252662e-03
3.236021000000000186e+03,1.488561095441731652e-01,6.037249396491972675e-03
3.237949000000000069e+03,1.470493546825935027e-01,6.157458215415356761e-03
3.239876999999999953e+03,1.452531460630162030e-01,6.805885575516201769e-03
3.241806000000000040e+03,1.434665602484592739e-01,6.834157430707810121e-03
3.243733999999999924e+03,1.416914495829466603e-01,6.981349365805078477e-03
3.245663000000000011e+03,1.399259726653738767e-01,7.365546590665683624e-03
3.247592000000000098e+03,1.381710529327300208e-01,7.391466020064685338e-03
3.249519999999999982e+03,1.364275919333302056e-01,8.361147579456718049e-03
3.251447999999999865e+03,1.346946771759398587e-01,9.861069311475789689e-03
3.253376999999999953e+03,1.329714180523318134e-01,9.879587709317849686e-03
3.255304999999999836e+03,1.312596012490061526e-01,1.092325531624216417e-02
3.257233999999999924e+03,1.295574510223822529e-01,1.191075882296299682e-02
3.259161999999999807e+03,1.278667321731177253e-01,1.198467791482316080e-02
3.261090999999999894e+03,1.261856908434744184e-01,1.181491564596259813e-02
3.263019999999999982e+03,1.245152066987671446e-01,1.341312646609704728e-02
3.264947999999999865e+03,1.228561375156154156e-01,1.380412731810554128e-02
3.266876000000000204e+03,1.212076145744660494e-01,1.415425745626275322e-02
3.268804999999999836e+03,1.195687910387945863e-01,1.478175985577756535e-02
3.270733000000000175e+03,1.179413660517134588e-01,1.645770399781665283e-02
3.272661999999999807e+03,1.163236514130261412e-01,1.642930522297914031e-02
3.274590999999999894e+03,1.147164939592677513e-01,1.642269536651830286e-02
3.276518999999999778e+03,1.131207186382958696e-01,1.569056206523189445e-02
3.278447999999999865e+03,1.115346700815251779e-01,1.750808742378184846e-02
3.280376000000000204e+03,1.099599927146144296e-01,1.936225533956514866e-02
3.282304000000000087e+03,1.083958615897167022e-01,2.029412122641605087e-02
3.284233000000000175e+03,1.068414736419782685e-01,1.957518460122398274e-02
3.286161000000000058e+03,1.052984404711381217e-01,1.989664696442239311e-02
3.288090000000000146e+03,1.037651614203838335e-01,2.102357809240307240e-02
3.290018999999999778e+03,1.022424395545620257e-01,2.218341711176785580e-02
3.291947000000000116e+03,1.007310560498382301e-01,2.288665344172158278e-02
3.293875000000000000e+03,9.923021878712390276e-02,2.425659006762193037e-02
3.295804000000000087e+03,9.773915753033435294e-02,2.465293789067035668e-02
3.297731999999999971e+03,9.625941822168471163e-02,2.529572177629368923e-02
3.299661000000000058e+03,9.478946586187930734e-02,2.408953949544390127e-02
3.301588999999999942e+03,9.333082450728724666e-02,2.422249602238002453e-02
3.303518000000000029e+03,9.188198104446598791e-02,2.559805534490044998e-02
3.305447000000000116e+03,9.044369476657720952e-02,2.699944684870647649e-02
3.307375000000000000e+03,8.901670307809794735e-02,2.594134806917791636e-02
3.309302999999999884e+03,8.760025763162815338e-02,2.544179230266907510e-02
3.311231999999999971e+03,8.619363196277873840e-02,2.537262700821107941e-02
3.313159999999999854e+03,8.479828447037007777e-02,2.602856279537335560e-02
3.315088999999999942e+03,8.341276769849770290e-02,2.708910231059968865e-02
3.317016999999999825e+03,8.203851816015372833e-02,2.829100776726978239e-02
3.318945999999999913e+03,8.067411028526905170e-02,2.795320195570938360e-02
3.320875000000000000e+03,7.932025959531330273e-02,2.958098370803252664e-02
3.322802999999999884e+03,7.797765972307857396e-02,3.158415165870653851e-02
3.324731000000000222e+03,7.664560609285686610e-02,3.166279378584535564e-02
3.326659999999999854e+03,7.532341601193692782e-02,3.053375572565530938e-02
3.328588000000000193e+03,7.401246033577280059e-02,3.053873748086521900e-02
3.330516999999999825e+03,7.271137915183700784e-02,3.125607258171214653e-02
3.332445000000000164e+03,7.142152142973401396e-02,3.120558864809885868e-02
3.334373999999999796e+03,7.014154914278591946e-02,3.307284487318495891e-02
3.336302000000000135e+03,6.887278937474405893e-02,3.517451680134020542e-02
3.338231000000000222e+03,6.761392598478010996e-02,3.470640151951598362e-02
3.340159000000000106e+03,6.636626417079938278e-02,3.454650243184897995e-02
3.342088000000000193e+03,6.512850967781602662e-02,3.461423771933347382e-02
3.344016000000000076e+03,6.390194581789998551e-02,3.543041039356276123e-02
3.345945000000000164e+03,6.268530022189722217e-02,3.523797886432533666e-02
3.347873000000000047e+03,6.147983431603876170e-02,3.532598798255648376e-02
3.349802000000000135e+03,6.028429761702369660e-02,3.499519293184927271e-02
3.351730000000000018e+03,5.909992966522992219e-02,3.567112057231169864e-02
3.353659000000000106e+03,5.792550186319544991e-02,3.507207217905672358e-02
3.355586999999999989e+03,5.676223186546280886e-02,3.498698475234784944e-02
3.357516000000000076e+03,5.560891296041248211e-02,3.643647266578797783e-02
3.359443999999999960e+03,5.446674091674097440e-02,3.760492591839503795e-02
3.361373000000000047e+03,5.333453090867479318e-02,3.755043826144555119e-02
3.363302000000000135e+03,5.221287808554109233e-02,3.844516295357758295e-02
3.365230000000000018e+03,5.110235570798238314e-02,3.866869452955934428e-02
3.367157999999999902e+03,5.000237957243314213e-02,3.936080651874251934e-02
3.369086999999999989e+03,4.891238735833525197e-02,3.937630161366523218e-02
3.371014999999999873e+03,4.783350917684714432e-02,3.968342198660179676e-02
3.372943999999999960e+03,4.676462585973339969e-02,3.970459480134014285e-02
3.374871999999999844e+03,4.570684563230287267e-02,3.990368706758595785e-02
3.376800999999999931e+03,4.465907121217327358e-02,3.896318695016365297e-02
3.378728999999999814e+03,4.362238893880743262e-02,3.833151786398247829e-02
3.380657999999999902e+03,4.259572341566197906e-02,3.776513779933843296e-02
3.382585999999999785e+03,4.158013909635371874e-02,3.918252137064315299e-02
3.384514999999999873e+03,4.057458247019241071e-02,4.038872491887079974e-02
3.386443000000000211e+03,3.958009610494883646e-02,4.191591117292436941e-02
3.388371999999999844e+03,3.859564837576812124e-02,4.242931877272049235e-02
3.390300000000000182e+03,3.762225996458568034e-02,4.190619449816601616e-02
3.392228999999999814e+03,3.665892113238911065e-02,4.159034602620792498e-02
3.394157000000000153e+03,3.570663067526780310e-02,4.284183793890394831e-02
3.396085999999999785e+03,3.476440074005537895e-02,4.308963746877902956e-02
3.398014000000000124e+03,3.383320823699875746e-02,4.281795925516762580e-02
3.399943000000000211e+03,3.291208719877047884e-02,4.304818774310770202e-02
3.401871000000000095e+03,3.200199264977143798e-02,4.486397318465717987e-02
3.403800000000000182e+03,3.110198050852375218e-02,4.487497289287145641e-02
3.405728000000000065e+03,3.021298391358939739e-02,4.577559386868101932e-02
3.407657000000000153e+03,2.933408066932585712e-02,4.714069947825350049e-02
3.409585000000000036e+03,2.846618202845263568e-02,4.803841718311119280e-02
3.411514000000000124e+03,2.760838768117324094e-02,4.720764385627762572e-02
3.413442000000000007e+03,2.676158699436115285e-02,4.565173555693768925e-02
3.415371000000000095e+03,2.592490154406235092e-02,4.395380056854247819e-02
3.417298999999999978e+03,2.509919881131139618e-02,4.509639403211318509e-02
3.419228000000000065e+03,2.428362225800029250e-02,4.679997220272946734e-02
3.421155999999999949e+03,2.347901747930691840e-02,4.715274235087596466e-02
3.423085000000000036e+03,2.268454982297996025e-02,4.590687845964414038e-02
3.425012999999999920e+03,2.190104299835127222e-02,4.770979294625599110e-02
3.426942000000000007e+03,2.112768423900845960e-02,4.887939147108988358e-02
3.428869999999999891e+03,2.036527536843735220e-02,4.913639247751433459e-02
3.430798999999999978e+03,1.961302550607868511e-02,4.905674099548829048e-02
3.432726999999999862e+03,1.887171458957226378e-02,4.908087815277073496e-02
3.434655999999999949e+03,1.814057362419418951e-02,4.970082938803654926e-02
3.436583999999999833e+03,1.742036066174890152e-02,5.115641079281507686e-02
3.438512999999999920e+03,1.671032859335497278e-02,4.992921451793597143e-02
3.440440999999999804e+03,1.601121358497437086e-02,4.875528798179007417e-02
3.442369999999999891e+03,1.532229041356103494e-02,4.763535640742366795e-02
3.444297999999999774e+03,1.464427335923801365e-02,4.917559927798031971e-02
3.446226999999999862e+03,1.397645908481237598e-02,4.967157487859608089e-02
3.448155000000000200e+03,1.331953998455048804e-02,4.926562124055822167e-02
3.450083999999999833e+03,1.267283460710899590e-02,4.929724524733347657e-02
3.452012000000000171e+03,1.203701346091179403e-02,4.977992781069451311e-02
3.453940999999999804e+03,1.141141698045089470e-02,4.960950690512500039e-02
3.455869000000000142e+03,1.079669378831127347e-02,4.964351646136022644e-02
3.457797999999999774e+03,1.019220620483451967e-02,5.087622601997110472e-02
3.459726000000000113e+03,9.598580966759584499e-03,5.230175260243075108e-02
3.461655000000000200e+03,9.015202280263423518e-03,5.094284886701228032e-02
3.463583000000000084e+03,8.442674996249621699e-03,4.978940829496636411e-02
3.465512000000000171e+03,7.880405206741158963e-03,5.029810485087526928e-02
3.467440000000000055e+03,7.328975876788490496e-03,5.136808264944225932e-02
3.469369000000000142e+03,6.787814984260620577e-03,5.155495262920339883e-02
3.471297000000000025e+03,6.257483608369085459e-03,5.246181286388384990e-02
3.473226000000000113e+03,5.737431612828913785e-03,5.115127757548609821e-02
3.475153999999999996e+03,5.228198190994959305e-03,5.101409433907666546e-02
3.477083000000000084e+03,4.729255092438933161e-03,5.269468102400698406e-02
3.479010999999999967e+03,4.241119624669664745e-03,5.352295598434664292e-02
3.480940000000000055e+03,3.763285423094231419e-03,5.265691067515709811e-02
3.482867999999999938e+03,3.296247909386096353e-03,5.388104916935643196e-02
3.484797000000000025e+03,2.839522604794808558e-03,5.516260010823481608e-02
3.486724999999999909e+03,2.393583045147806843e-03,5.502277195333604709e-02
3.488653999999999996e+03,1.957966637540664578e-03,5.442988335740528427e-02
3.490581999999999880e+03,1.533125031954796214e-03,5.457270737479746892e-02
3.492510999999999967e+03,1.118617521331799480e-03,5.468902424557420261e-02
3.494438999999999851e+03,7.148738698070644659e-04,5.313936650217310209e-02
3.496367999999999938e+03,3.214752561646605500e-04,5.211408524115657137e-02
3.498295999999999822e+03,-6.117044129538840025e-05,5.560448389525274315e-02
3.500224999999999909e+03,-4.334601579536467852e-04,5.500588510488579885e-02
3.502152999999999793e+03,-7.950079013525623850e-04,5.387951209623786930e-02
3.504081999999999880e+03,-1.146188721026675239e-03,5.430599868766972094e-02
3.506010000000000218e+03,-1.486638510368010202e-03,5.662410944941598245e-02
3.507938999999999851e+03,-1.816710433057977525e-03,5.650689541233622215e-02
3.509867000000000189e+03,-2.136062268338179138e-03,5.685758253519335170e-02
3.511795999999999822e+03,-2.445025294044000930e-03,5.864941223430486517e-02
3.513724000000000160e+03,-2.743279175259516478e-03,5.784436074808874118e-02
3.515652999999999793e+03,-3.031133303981192739e-03,5.566329746045539650e-02
3.517581000000000131e+03,-3.308289231139127651e-03,5.410329580144135342e-02
3.519510000000000218e+03,-3.575034462876658381e-03,5.221296026900223985e-02
3.521438000000000102e+03,-3.831092435969907228e-03,5.305074269372789253e-02
3.523367000000000189e+03,-4.076728770726845141e-03,5.213950042745385538e-02
3.525295000000000073e+03,-4.311688789758960638e-03,5.199035046973454754e-02
3.527224000000000160e+03,-4.536216227531753020e-03,5.205567443030134633e-02
3.529152000000000044e+03,-4.750078292506287880e-03,5.440387390556611358e-02
3.531081000000000131e+03,-4.953496833291382018e-03,5.558374043988223434e-02
3.533009000000000015e+03,-5.146260944201230814e-03,5.663418169624812037e-02
3.534938000000000102e+03,-5.328570588005732134e-03,5.693071351734979579e-02
3.536865999999999985e+03,-5.500236744858000293e-03,5.668188033123211511e-02
3.538795000000000073e+03,-5.661437491674803368e-03,5.622597807592621955e-02
3.540722999999999956e+03,-5.812005694462385463e-03,5.491389591987427821e-02
3.542652000000000044e+03,-5.952097544298595722e-03,5.338715263375570785e-02
3.544579999999999927e+03,-6.081567793028597180e-03,5.299605278241492634e-02
3.546509000000000015e+03,-6.200550745880661907e-03,5.171758299090245536e-02
3.548436999999999898e+03,-6.308923040545977301e-03,5.334622214091999659e-02
3.550365999999999985e+03,-6.406797096417449211e-03,5.415823750883030918e-02
3.552293999999999869e+03,-6.494071437021631255e-03,5.394732120958800614e-02
3.554222999999999956e+03,-6.570836595905404920e-03,5.656881496444876589e-02
3.556150999999999840e+03,-6.637012982448453613e-03,6.113514297335109760e-02
3.558079999999999927e+03,-6.692669244351634461e-03,6.465587555184182378e-02
3.560007999999999811e+03,-6.737747676833549804e-03,6.653760616263171279e-02
3.561936999999999898e+03,-6.772295041752585121e-03,6.760116393895265752e-02
3.563864999999999782e+03,-6.796275520173367113e-03,6.911255976155628034e-02
3.565793999999999869e+03,-6.809713988108256899e-03,6.521464676886257195e-02
3.567722000000000207e+03,-6.812596512464352827e-03,5.844506391365733577e-02
3.569650999999999840e+03,-6.804926083418649796e-03,5.871385158629927048e-02
3.571579000000000178e+03,-6.786710653717165087e-03,5.781723728871179802e-02
3.573507999999999811e+03,-6.757931327683763811e-03,5.496676585714932450e-02
3.575436000000000149e+03,-6.718617943921145752e-03,5.450038282818248092e-02
3.577364999999999782e+03,-6.668729720903598945e-03,5.315867210440705648e-02
3.579293000000000120e+03,-6.608318383079847536e-03,5.207683147314368100e-02
3.581222000000000207e+03,-6.537321263078155198e-03,5.276394614936164018e-02
3.583150000000000091e+03,-6.455811971193270438e-03,5.371346890033490418e-02
3.585079000000000178e+03,-6.363705954210985283e-03,5.474437915748597838e-02
3.587007000000000062e+03,-6.261098708261414458e-03,5.641777514614676470e-02
3.588936000000000149e+03,-6.147883794294983772e-03,6.179379504467408246e-02
3.590864000000000033e+03,-6.024178594287832311e-03,7.176561193099084690e-02
3.592793000000000120e+03,-5.889854783337256094e-03,7.986134977979952865e-02
3.594721000000000004e+03,-5.745051629265418569e-03,9.255794963795849206e-02
3.596650000000000091e+03,-5.589618921334249535e-03,1.061895380560760049e-01
3.598577999999999975e+03,-5.423717813201278659e-03,1.111297725994140340e-01
3.600507000000000062e+03,-5.247176208282411380e-03,9.733602691079923375e-02
3.602434999999999945e+03,-5.060177146088307154e-03,7.587893788600519329e-02
3.604364000000000033e+03,-4.862526644188847058e-03,6.050338381592657022e-02
3.606291999999999916e+03,-4.654429627933609481e-03,5.208746308593426022e-02
3.608221000000000004e+03,-4.435670229050003854e-03,4.656798600788358833e-02
3.610148999999999887e+03,-4.206475258733632927e-03,4.519505304100412957e-02
3.612077999999999975e+03,-3.966606962865881769e-03,4.288048546281530982e-02
3.614005999999999858e+03,-3.716314038488377491e-03,3.809870562850137254e-02
3.615934999999999945e+03,-3.455336845636480803e-03,3.513228013887403911e-02
3.617862999999999829e+03,-3.183945967197843174e-03,3.266994616936114149e-02
3.619791999999999916e+03,-2.901859877361800955e-03,3.103538863506916101e-02
3.621719999999999800e+03,-2.609371044862029976e-03,3.316026561678175888e-02
3.623648999999999887e+03,-2.306176058041842225e-03,3.196350952615056862e-02
3.625577000000000226e+03,-1.992589271480937896e-03,3.147302998713841227e-02
3.627505999999999858e+03,-1.668285387680157328e-03,3.085104087135559503e-02
3.629434000000000196e+03,-1.333600647058119648e-03,2.851797343589890232e-02
3.631362999999999829e+03,-9.881878662731935492e-04,2.970141944415671809e-02
3.633291000000000167e+03,-6.324051715864698053e-04,3.052020462574622783e-02
3.635219999999999800e+03,-2.658834938173981755e-04,3.151424091825894003e-02
3.637148000000000138e+03,1.109971549269062052e-04,3.134205045449389715e-02
3.639077000000000226e+03,4.986277296801233661e-04,3.133903526435610765e-02
3.641005000000000109e+03,8.966063324891138109e-04,3.322802724680928854e-02
3.642934000000000196e+03,1.305345804226476503e-03,3.130963448486689948e-02
3.644862000000000080e+03,1.724422361093047584e-03,2.794958956653248450e-02
3.646791000000000167e+03,2.154270729814555807e-03,2.103182044576401566e-02
3.648719000000000051e+03,2.594445240745812953e-03,1.264916134977278617e-02
3.650648000000000138e+03,3.045402506447913993e-03,1.356583776445074996e-02
3.652576000000000022e+03,3.506674971440304489e-03,2.422505453427103994e-02
3.654505000000000109e+03,3.978741134126551060e-03,2.644074739311497169e-02
3.656432999999999993e+03,4.461111553180074907e-03,2.506582668597912011e-02
3.658362000000000080e+03,4.954286612850467009e-03,2.483142045275155141e-02
3.660289999999999964e+03,5.457754985965124206e-03,2.374572222014026401e-02
3.662219000000000051e+03,5.972038942619661839e-03,2.271592224205609689e-02
3.664146999999999935e+03,6.496605269791899673e-03,2.227171576528319541e-02
3.666076000000000022e+03,7.031998123430582837e-03,1.914610760789470234e-02
3.668003999999999905e+03,7.577662404671059448e-03,1.480735730623594648e-02
3.669932999999999993e+03,8.134164155290335430e-03,9.849258466765764553e-03
3.671860999999999876e+03,8.700926390588392678e-03,1.416675783057819160e-02
3.673789999999999964e+03,9.278537038195366904e-03,1.368568008502291100e-02
3.675717999999999847e+03,9.866397227554557503e-03,5.574823837845244157e-03
3.677646999999999935e+03,1.046511677214567726e-02,7.440473038831996178e-03
3.679574999999999818e+03,1.107407491556244850e-02,1.131246101893657041e-02
3.681503999999999905e+03,1.169390335713771378e-02,1.436442071038479540e-02
3.683431999999999789e+03,1.232395945461917108e-02,1.471232883002659975e-02
3.685360999999999876e+03,1.296489679317147647e-02,9.423660772784225870e-03
3.687289000000000215e+03,1.361605084471761984e-02,3.488467501588043973e-03
3.689217999999999847e+03,1.427809708025762347e-02,-1.423445279478130487e-04
3.691146000000000186e+03,1.495034908586134748e-02,2.118285302089573108e-03
3.693074999999999818e+03,1.563350421838549664e-02,3.098932858335512464e-03
3.695003000000000156e+03,1.632685417805390671e-02,3.710546003893089306e-03
3.696931999999999789e+03,1.703111820755864869e-02,3.448008447652251007e-03
3.698860000000000127e+03,1.774556612128463939e-02,3.235430543023332106e-03
