baseline wavenumber (cm-1),baseline absorbance (cm-1),baseline-subtracted absorbance (cm-1)
3199.379,0.207636409583,1.33226762955e-14
3201.308,0.205691229957,-0.000118400683756
3203.236,0.203756904431,0.000512477960679
3205.165,0.201831426443,-3.04560594571e-05
3207.093,0.19991679234,0.00126202096206
3209.021,0.198012001397,0.00107947742621
3210.95,0.196116073311,0.00206971462025
3212.878,0.194230973791,0.00277873003966
3214.807,0.192354747342,0.00409496457559
3216.736,0.190488374265,0.00340447926768
3218.664,0.188632814434,0.00397023822928
3220.593,0.186786142995,0.00412783658692
3222.521,0.184950274587,0.00582168538422
3224.449,0.18312424934,0.00588484800199
3226.378,0.181307127802,0.00671035931038
3228.306,0.179500793978,0.00780608967751
3230.235,0.177703374077,0.00954134441089
3232.164,0.175915807549,0.00866440067917
3234.092,0.174139013413,0.00962445570645
3236.021,0.172371148522,0.0106584683786
3237.949,0.17061404581,0.0109089502475
3239.877,0.168866786258,0.00995985884506
3241.806,0.167128471268,0.0112645338867
3243.734,0.165400903139,0.011145847088
3245.663,0.163682289788,0.0116373301457
3247.592,0.161973529808,0.0120355675333
3249.52,0.160275501368,0.0135577140372
3251.448,0.158587316086,0.0130458588859
3253.377,0.156908106009,0.0140078952043
3255.305,0.155239612151,0.0144366235711
3257.234,0.153580103711,0.0154770073779
3259.162,0.151931301277,0.0148782610398
3261.091,0.150291494474,0.0157190180098
3263.02,0.148661541043,0.016412956076
3264.948,0.147042278298,0.0175652219549
3266.876,0.145432858712,0.0170635528926
3268.805,0.143832455183,0.0187155080236
3270.733,0.14224272702,0.0190487922357
3272.662,0.140662025129,0.0192679253414
3274.591,0.13909117661,0.0187312230669
3276.519,0.137530988136,0.0201948786389
3278.448,0.135979841254,0.0201843152205
3280.376,0.134439344203,0.0212188989988
3282.304,0.132908690312,0.0207122537895
3284.233,0.131387093332,0.0217557349301
3286.161,0.129876130865,0.0224393447237
3288.09,0.128374235522,0.0238042745354
3290.019,0.126882193552,0.0236931627606
3291.947,0.125400770773,0.024651993808
3293.875,0.123929191153,0.0246407067543
3295.804,0.122466699085,0.0255917260643
3297.732,0.121014810889,0.0249209012308
3299.661,0.119572020458,0.0261271607817
3301.589,0.118139823685,0.0265581445749
3303.518,0.116716734891,0.0279807279612
3305.447,0.11530349947,0.0277008470379
3307.375,0.113900842386,0.0285667609699
3309.303,0.112508028462,0.0284180809087
3311.232,0.111124342942,0.0292700773554
3313.16,0.109751220441,0.0290769408852
3315.089,0.108387236558,0.0296222651094
3317.017,0.107033805481,0.0291912020996
3318.946,0.105689523236,0.0307239003968
3320.875,0.104355094363,0.0311440464434
3322.803,0.103031202975,0.031617942886
3324.731,0.101717154745,0.0316911137273
3326.66,0.100412275774,0.0328345148858
3328.588,0.0991179189687,0.0320313279736
3330.517,0.0978327416349,0.0323061444462
3332.445,0.0965580762531,0.0324513243332
3334.374,0.0952926005564,0.0335959570096
3336.302,0.0940376265984,0.0328365773842
3338.231,0.0927918525389,0.034009623252
3340.159,0.0915565700047,0.0347714396991
3342.088,0.0903304975824,0.0362607285371
3344.016,0.089114906472,0.0356895512253
3345.945,0.0879085356869,0.0358724205448
3347.873,0.0867126360003,0.0350061045233
3349.802,0.0855259668523,0.0364474992348
3351.73,0.0843497585895,0.0368468956104
3353.659,0.0831827910788,0.0367099108317
3355.587,0.0820262742397,0.0362036863384
3357.516,0.0808790083662,0.0374029586812
3359.444,0.0797421829509,0.0374606372249
3361.373,0.0786146187145,0.0377534192921
3363.302,0.0774969078508,0.0371622450857
3365.23,0.0763896221239,0.0382985412239
3367.158,0.0752921795562,0.0385460899272
3369.087,0.0742040185942,0.0394304704384
3371.015,0.0731262674504,0.0381529703946
3372.944,0.0720578081255,0.0387163251
3374.872,0.0709997484054,0.0390165257278
3376.801,0.0699509907178,0.0401938591761
3378.729,0.0689126224215,0.039942679307
3380.658,0.0678835663711,0.0405630625585
3382.586,0.0668648894986,0.0399810116437
3384.515,0.0658555350853,0.0396592733651
3386.443,0.0648565496366,0.0393606746634
3388.372,0.0638668968605,0.0407403506883
3390.3,0.0628876028356,0.0416067365964
3392.229,0.0619176516967,0.0421734228005
3394.157,0.0609580490955,0.0410394744059
3396.086,0.0600077995938,0.0420768056826
3398.014,0.0590678884165,0.0419751217928
3399.943,0.0581373405519,0.0432066400404
3401.871,0.0572171207984,0.0430991129022
3403.8,0.056306274571,0.0437840418143
3405.728,0.0554057462413,0.0431768374037
3407.657,0.0545146016511,0.0439013995619
3409.585,0.0536337647452,0.0437311902735
3411.514,0.0527623217922,0.0443447741342
3413.442,0.05190117631,0.0430831055054
3415.371,0.0510494349942,0.0436117901145
3417.299,0.0502079809358,0.0428908768424
3419.228,0.0493759412572,0.0433010525768
3421.156,0.0485541786226,0.0430031346292
3423.085,0.0477418405812,0.0427067088982
3425.013,0.0469397693704,0.0420746347537
3426.942,0.0461471329661,0.0432426375787
3428.87,0.0453647531791,0.0432215704841
3430.799,0.0445918184121,0.0431843364449
3432.727,0.0438291300489,0.0417186309943
3434.656,0.043075896919,0.0423509200223
3436.584,0.0423328999796,0.0423322167697
3438.513,0.0415993684869,0.0434950922429
3440.441,0.0408760629712,0.0428813917948
3442.37,0.0401622331157,0.0420989111277
3444.298,0.0394586190239,0.0409722917211
3446.227,0.0387644908056,0.041727574291
3448.155,0.0380805681375,0.0416133063192
3450.084,0.0374061415564,0.0437459862108
3452.012,0.0367419103121,0.0443447671366
3453.941,0.0360871853681,0.0451349413882
3455.869,0.0354426455477,0.0443478628926
3457.798,0.0348076222409,0.0454242083464
3459.726,0.0341827738442,0.0442047223652
3461.655,0.0335674521746,0.0447552507466
3463.583,0.0329622952017,0.0450778847235
3465.512,0.0323666751693,0.0463757184423
3467.44,0.0317812096202,0.0466185680003
3469.369,0.031205291225,0.0477594313061
3471.297,0.0306395170997,0.0472750184305
3473.226,0.0300833003417,0.0477150419205
3475.154,0.0295372176402,0.047682331536
3477.083,0.0290007025193,0.0499490093982
3479.011,0.0284743112416,0.049868911239
3480.94,0.0279574977579,0.0492657408957
3482.868,0.027450797904,0.0494814774422
3484.797,0.0269536860575,0.0534743438626
3486.725,0.0264666776274,0.0534803556285
3488.654,0.0259892674181,0.0531938418511
3490.582,0.0255219504117,0.053041073949
3492.511,0.0250642418396,0.0539552163632
3494.439,0.024616616257,0.0532159421176
3496.368,0.0241786093221,0.0534112521961
3498.296,0.0237506751633,0.0533510634397
3500.225,0.0233323698656,0.0541712185302
3502.153,0.0229241271306,0.053827262741
3504.082,0.0225255234701,0.0548756187517
3506.01,0.0221369721589,0.0560756529296
3507.939,0.0217580701355,0.0584212485747
3509.867,0.0213892102481,0.0607671629451
3511.796,0.0210300098619,0.0637125859129
3513.724,0.0206808413983,0.062260885075
3515.653,0.0203413426493,0.0617881428455
3517.581,0.0200118656095,0.0613399993456
3519.51,0.0196920684977,0.0630629097698
3521.438,0.0193822828816,0.0635599995403
3523.367,0.019082187407,0.0641454988358
3525.295,0.0187920932147,0.0639825959594
3527.224,0.0185116993773,0.0632588454524
3529.152,0.0182412966088,0.0626762208277
3531.081,0.0179806044086,0.0642333347403
3533.009,0.0177298930639,0.0644955188435
3534.938,0.0174889025009,0.0642245312402
3536.866,0.01725788258,0.0616063143269
3538.795,0.0170365936541,0.0627547234388
3540.723,0.016825265157,0.0632713688266
3542.652,0.0166236778683,0.0629097801323
3544.58,0.016432040795,0.058571042193
3546.509,0.0162501551435,0.0563405150273
3548.437,0.016078209494,0.0579083466568
3550.366,0.0159160254797,0.0601856120418
3552.294,0.0157637712539,0.0589705358319
3554.223,0.0156212888768,0.0634601323301
3556.151,0.0154887260749,0.0691304996403
3558.08,0.0153659453349,0.0755015367231
3560.008,0.0152530739568,0.0810973253154
3561.937,0.015149994854,0.0882783888516
3563.865,0.0150568148997,0.0902431446677
3565.794,0.0149734374341,0.0850738182012
3567.722,0.0148999489035,0.0783534625996
3569.651,0.0148362730751,0.0827369605244
3571.579,0.0147824759684,0.0854260553164
3573.508,0.0147385017771,0.0840162237864
3575.436,0.0147043960942,0.0766996774932
3577.365,0.0146801235401,0.0697400725581
3579.293,0.0146657092809,0.0634241016965
3581.222,0.0146611383641,0.0610587645976
3583.15,0.0146664155287,0.0597545892221
3585.079,0.014681546249,0.05887879945
3587.007,0.0147065148374,0.0553951732248
3588.936,0.0147413471949,0.0655973771556
3590.864,0.0147860072071,0.0783947771859
3592.793,0.0148405412018,0.0897355732225
3594.721,0.0149048926378,0.105833760956
3596.65,0.0149791282697,0.127165519461
3598.578,0.0150631711295,0.133896396241
3600.507,0.0151571083985,0.11790576434
3602.435,0.0152608426821,0.0885221857218
3604.364,0.0153744815884,0.0677171993982
3606.292,0.0154979072957,0.0506148997396
3608.221,0.0156312478392,0.0390442803121
3610.149,0.0157743649703,0.0366303656473
3612.078,0.0159274071509,0.0327451390939
3614.006,0.0160902157059,0.0280507425474
3615.935,0.0162629595237,0.0312310766635
3617.863,0.0164454595024,0.0276482431156
3619.792,0.0166379049574,0.0247353892911
3621.72,0.0168400963599,0.0291435284253
3623.649,0.0170522434521,0.0334238507559
3625.577,0.0172741262784,0.0304976820709
3627.506,0.0175059750078,0.0201644990648
3629.434,0.0177475492579,0.00995961742566
3631.363,0.0179990996244,0.024793278825
3633.291,0.0182603652983,0.0275480851212
3635.22,0.018531617302,0.0291174780179
3637.148,0.0188125743997,0.0296890429055
3639.077,0.0191035280406,0.0294921456681
3641.005,0.0194041765621,0.0277154534794
3642.934,0.0197148318402,0.0273415716775
3644.862,0.0200351717855,0.0257296619354
3646.791,0.0203655287007,0.0142531916066
3648.719,0.0207055600698,-0.00101092750131
3650.648,0.0210556186223,0.00271229808653
3652.576,0.0214153414151,0.018205552146
3654.505,0.0217851016047,0.0226562205422
3656.433,0.0221645158214,0.0174751283715
3658.362,0.0225539776482,0.0218718284773
3660.29,0.0229530832887,0.0243679012459
3662.219,0.0233622467527,0.0255981292708
3664.147,0.0237810438169,0.0252906230182
3666.076,0.0242099089181,0.0238947610506
3668.004,0.0246483974061,0.0160807039787
3669.933,0.0250969641445,0.00466271441611
3671.861,0.0255551440563,0.0078853694381
3673.79,0.0260234124319,0.00543883360068
3675.718,0.0265012837675,-0.011233063814
3677.647,0.0269892537802,0.00414331470255
3679.575,0.0274868165396,0.0110631177574
3681.504,0.0279944881895,0.0143598027232
3683.432,0.0285117423727,0.013774166856
3685.361,0.0290391156598,0.0117137398946
3687.289,0.0295760612668,0.00294188071238
3689.218,0.0301231361911,-0.00665957609812
3691.146,0.0306797732219,-0.00505958723177
3693.075,0.0312465497834,0.00314812321775
3695.003,0.0318228782379,0.00568535991028
3696.932,0.0324093564366,0.00521381145991
3698.86,0.0330053763149,0.00461779158157
