baseline wavenumber (cm-1),baseline absorbance (cm-1),baseline-subtracted absorbance (cm-1)
3199.379,0.175459102396,8.82627304577e-15
3201.308,0.173617642291,0.000648232570451
3203.236,0.171786982516,0.00069707186546
3205.165,0.169965224049,0.0011919577972
3207.093,0.168154255698,0.00165214781943
3209.021,0.166353130507,0.00151002020556
3210.95,0.164560921941,0.00218996757688
3212.878,0.162779488174,0.0032280575658
3214.807,0.161006981245,0.0041028893709
3216.736,0.159244327688,0.00375778997058
3218.664,0.157492433609,0.00313786559206
3220.593,0.15574948169,0.00458272289885
3222.521,0.154017279035,0.00553759815082
3224.449,0.152294919539,0.00613952400685
3226.378,0.150581517522,0.00640738877566
3228.306,0.14887884945,0.00727721039075
3230.235,0.147185149069,0.00802931570372
3232.164,0.145501302062,0.00854125833447
3234.092,0.143828173678,0.00861607478055
3236.021,0.142164028308,0.0100663214347
3237.949,0.140510591348,0.0099531001515
3239.877,0.138866997547,0.0100254617679
3241.806,0.137232402078,0.0108205848824
3243.734,0.135608499701,0.0116882404182
3245.663,0.13399360587,0.0122955885102
3247.592,0.132388565411,0.0132517711909
3249.52,0.130794202722,0.014308824671
3251.448,0.129209683193,0.0156234210224
3253.377,0.127634192636,0.0150237068893
3255.305,0.12606936453,0.0148364324982
3257.234,0.12451357561,0.0149284035671
3259.162,0.122968438928,0.0153276795394
3261.091,0.121432351646,0.0161690837128
3263.02,0.119906117735,0.0178258644742
3264.948,0.118390520742,0.0181414715759
3266.876,0.116884766908,0.0185551400973
3268.805,0.115388082899,0.0190286258847
3270.733,0.113902020489,0.0199014769336
3272.662,0.112425038118,0.0191980286973
3274.591,0.110957909119,0.0190205605059
3276.519,0.109501386397,0.0199509031006
3278.448,0.108053959036,0.0219417449975
3280.376,0.106617127737,0.0224698024153
3282.304,0.105190139598,0.0226697613419
3284.233,0.103772262139,0.0222560912426
3286.161,0.102364965423,0.0233738397925
3288.09,0.100966789601,0.0240192106013
3290.019,0.099578467151,0.0249460956712
3291.947,0.0982007101241,0.0256615662329
3293.875,0.0968327962563,0.0269120738538
3295.804,0.0954740237083,0.0273883031895
3297.732,0.0941258012643,0.0273773322644
3299.661,0.0927867303535,0.0272422800579
3301.589,0.0914581993333,0.0282430035374
3303.518,0.0901388300596,0.0289333421834
3305.447,0.0888293141586,0.0298069438016
3307.375,0.0875303228268,0.029341000331
3309.303,0.0862411746542,0.0293241745826
3311.232,0.0849612086549,0.029748232364
3313.16,0.0836917519061,0.0310005052454
3315.089,0.082431487544,0.0317615782601
3317.017,0.081181722219,0.0317998809348
3318.946,0.079941159494,0.0313095733474
3320.875,0.0787104501417,0.0319769550943
3322.803,0.0774902245051,0.0319303759195
3324.731,0.0762798420276,0.0324112526858
3326.66,0.0750786825771,0.032646577708
3328.588,0.0738879915234,0.033337875251
3330.517,0.0727065337101,0.0334207785309
3332.445,0.0715355340802,0.0334939311983
3334.374,0.070373777904,0.0327405958956
3336.302,0.069222469698,0.0336550699765
3338.231,0.068080415159,0.0339287832642
3340.159,0.0669487983767,0.0341429836914
3342.088,0.0658264454749,0.0337122182267
3344.016,0.0647145201164,0.0344818813796
3345.945,0.0636118688518,0.0357637502729
3347.873,0.0625196349171,0.0357619783448
3349.802,0.0614366852896,0.0362478391216
3351.73,0.0603641427787,0.0369098893652
3353.659,0.0593008947885,0.0359104162395
3355.587,0.0582480437014,0.0364445672357
3357.516,0.0572044973483,0.0367267671822
3359.444,0.056171337685,0.0376896246116
3361.373,0.0551474929691,0.0377506673463
3363.302,0.0541335016258,0.037497651715
3365.23,0.0531298816508,0.0368397938773
3367.158,0.0521361048351,0.0375997690151
3369.087,0.0511516633936,0.0383750221416
3371.015,0.0501775780017,0.0394201173385
3372.944,0.0492128381973,0.0392183757924
3374.872,0.0482584442292,0.0390029021774
3376.801,0.047313406062,0.0390172317627
3378.729,0.0463787035176,0.0395952679774
3380.658,0.0454533669877,0.0396411948237
3382.586,0.0445383558671,0.0396825579103
3384.515,0.0436327209743,0.0387966735471
3386.443,0.0427374012775,0.0396341745842
3388.372,0.0418514680219,0.0403575181299
3390.3,0.0409758397489,0.0404528977422
3392.229,0.0401096081305,0.0404246585227
3394.157,0.0392536712813,0.0414073516642
3396.086,0.0384071413001,0.0408613313574
3398.014,0.0375708958747,0.0411668985254
3399.943,0.0367440675306,0.0423639886707
3401.871,0.035927513529,0.0426860010773
3403.8,0.0351203868221,0.0424080170998
3405.728,0.0343235242443,0.0434580384768
3407.657,0.0335360991746,0.0437474346372
3409.585,0.0327589280206,0.0437920170921
3411.514,0.0319912045881,0.0427303156788
3413.442,0.0312337248579,0.0422217487093
3415.371,0.0304857030625,0.041900832872
3417.299,0.0297479147561,0.0418118749942
3419.228,0.029019594598,0.0402550945762
3421.156,0.0283014977153,0.0395015953808
3423.085,0.0275928791944,0.039762220371
3425.013,0.0268944737355,0.0411380239902
3426.942,0.0262055568517,0.0417941904443
3428.87,0.0255268428166,0.0417969214611
3430.799,0.0248576275701,0.041077275897
3432.727,0.0241986049588,0.041118993343
3434.656,0.0235490913494,0.0402180167068
3436.584,0.0229097601619,0.0395644134962
3438.513,0.0222799481897,0.0391635977519
3440.441,0.021660308426,0.0388356483111
3442.37,0.021050198091,0.0379235712409
3444.298,0.020450249751,0.0390764357842
3446.227,0.0198598410532,0.0382030316851
3448.155,0.0192795841371,0.0380427649987
3450.084,0.0187088770764,0.0397862204673
3452.012,0.0181483115841,0.0414547410794
3453.941,0.0175973061606,0.0417296927275
3455.869,0.0170564320921,0.042031812121
3457.798,0.0165251283058,0.0414419191015
3459.726,0.016003945661,0.0419227196579
3461.655,0.0154923435119,0.0414851152973
3463.583,0.014990852291,0.0416364094092
3465.512,0.0144989517791,0.0409762326948
3467.44,0.0140171519819,0.0413977373338
3469.369,0.0135449531072,0.0420575941485
3471.297,0.0130828447338,0.0426716281258
3473.226,0.0126303474962,0.0417501235439
3475.154,0.0121879305466,0.0415621452645
3477.083,0.0117551349463,0.0422022591708
3479.011,0.0113324094205,0.0438304329933
3480.94,0.0109193154573,0.0431689792966
3482.868,0.0105162813553,0.0430337034825
3484.797,0.0101228890293,0.0437300372822
3486.725,0.00973954635109,0.0433451600069
3488.654,0.00936585566228,0.0429808035917
3490.582,0.00900220440786,0.0446863127255
3492.511,0.00864821535623,0.046268897754
3494.439,0.0083042555256,0.0473116850384
3496.368,0.00796996811115,0.0469096942764
3498.296,0.00764569970431,0.0482196090999
3500.225,0.00733111392706,0.0474133518568
3502.153,0.007026536944,0.0437550257771
3504.082,0.00673165280393,0.0438929807754
3506.01,0.00644676724467,0.0477763703274
3507.939,0.00617158474178,0.0482375429242
3509.867,0.00590639060631,0.0508884643416
3511.796,0.00565090974061,0.0536961538397
3513.724,0.00540540702893,0.0532009813265
3515.653,0.00516962780041,0.0519787599485
3517.581,0.00494381651252,0.0515563351098
3519.51,0.00472773892119,0.0505248133885
3521.438,0.00452161905709,0.0481707897168
3523.367,0.00432524310294,0.0461536308483
3525.295,0.00413881466263,0.0469093507068
3527.224,0.00396214034566,0.0442957187466
3529.152,0.00379540332915,0.0446623445734
3531.081,0.00363843064937,0.0492162645897
3533.009,0.00349138505664,0.0529001038749
3534.938,0.00335411401405,0.0515142272373
3536.866,0.00322675984511,0.0506716531742
3538.795,0.0031091904397,0.0515492043849
3540.723,0.00300152769455,0.0510553306902
3542.652,0.00290365992633,0.0474427971645
3544.58,0.00281568860497,0.0445220249299
3546.509,0.00273752247393,0.0450577873411
3548.437,0.00266924257637,0.0478185770941
3550.366,0.00261077808251,0.0474130771687
3552.294,0.00256218960874,0.0473875728496
3554.223,0.00252342675206,0.0524422055132
3556.151,0.00249452970208,0.0574600846717
3558.08,0.00247546848259,0.0620379753666
3560.008,0.0024662628564,0.066336526995
3561.937,0.0024669032741,0.0692256065814
3563.865,0.0024773890717,0.0692070342579
3565.794,0.00249773112658,0.0615875311801
3567.722,0.00252790834797,0.0554797738516
3569.651,0.00256795204003,0.0563831244787
3571.579,0.00261782068521,0.0565264227192
3573.508,0.00267756601447,0.0538836894187
3575.436,0.00274712608343,0.05183085835
3577.365,0.00282657304987,0.051048995534
3579.293,0.00291582454263,0.0513749871424
3581.222,0.00301497314625,0.0523158163008
3583.15,0.0031239160628,0.0530045586163
3585.079,0.00324276630361,0.050684909831
3587.007,0.00337140064395,0.0471623100606
3588.936,0.00350995252194,0.0595698513798
3590.864,0.00365827828607,0.0737177957056
3592.793,0.00381653180125,0.0834611392793
3594.721,0.00398454898917,0.09944727149
3596.65,0.00416250414153,0.116670862886
3598.578,0.00435021275324,0.122933927548
3600.507,0.00454786954279,0.108007927485
3602.435,0.00475526957829,0.0817990617671
3604.364,0.00497262800502,0.0616772759675
3606.292,0.00519971946432,0.0451952567815
3608.221,0.00543677952823,0.0343654038337
3610.149,0.00568356241132,0.0342954126215
3612.078,0.00594032411242,0.0265351636062
3614.006,0.00620679841929,0.0212255780085
3615.935,0.00648326175757,0.0222237533036
3617.863,0.00676942748824,0.0180876431678
3619.792,0.00706559246371,0.019080015542
3621.72,0.00737144961817,0.030400864139
3623.649,0.00768731623082,0.0346012211188
3625.577,0.00801286480906,0.0319373525163
3627.506,0.0083484330589,0.0208768272261
3629.434,0.00869367306094,0.0147541688475
3631.363,0.00904894294796,0.0235273736395
3633.291,0.00941387437379,0.0231156919863
3635.22,0.009788845898,0.024191038869
3637.148,0.0101734687476,0.0246333138259
3639.077,0.010568141909,0.0233437655003
3641.005,0.0109724561824,0.025137722732
3642.934,0.011386830981,0.0254505287683
3644.862,0.0118108366782,0.0224350442477
3646.791,0.012244913114,0.0086685610597
3648.719,0.0126886102349,-0.00600807854588
3650.648,0.0131423883079,-0.00191975614373
3652.576,0.0136057768527,0.013419847326
3654.505,0.0140792565628,0.0140872247876
3656.433,0.0145623365314,0.0127580920545
3658.362,0.0150555178787,0.0179458467225
3660.29,0.0155582892711,0.021478605503
3662.219,0.0160711722556,0.022956625177
3664.147,0.0165936350717,0.021964183588
3666.076,0.0171262196934,0.0179366530449
3668.004,0.0176683739333,0.00955511742419
3669.933,0.0182206601922,-0.00148458417886
3671.861,0.0187825058559,0.00671137870891
3673.79,0.019354493752,-0.00165066276038
3675.718,0.0199360308395,-0.0199360308395
3677.647,0.0205277203728,-0.00547283307871
3679.575,0.0211289488841,0.00360267954007
3681.504,0.0217403400545,0.0113774199779
3683.432,0.0223612599896,0.0140949211486
3685.361,0.0229923527972,0.0112915853409
3687.289,0.0236329641561,0.00240170682337
3689.218,0.0242837586009,-0.00993846394811
3691.146,0.0249440613836,-0.00325695939228
3693.075,0.0256145574656,0.00586456918965
3695.003,0.026294551672,0.00546800771338
3696.932,0.0269847493912,0.00386610474809
3698.86,0.0276844350215,0.00316641911782
