baseline wavenumber (cm-1),baseline absorbance (cm-1),baseline-subtracted absorbance (cm-1)
3199.379,0.156755281512,1.15463194561e-14
3201.308,0.154939525144,0.00298122690327
3203.236,0.153134555781,0.005183446847
3205.165,0.15133850105,0.00855435248302
3207.093,0.149553223111,0.0070529630812
3209.021,0.147777788332,0.00415590215668
3210.95,0.146011283502,0.00450827578238
3212.878,0.144255540146,0.00875871235552
3214.807,0.142508736954,0.0114536607011
3216.736,0.140771787134,0.0107777933774
3218.664,0.139045583467,0.010312043138
3220.593,0.137328335284,0.0114986130632
3222.521,0.135621823041,0.0116146067583
3224.449,0.133925153956,0.0116540434561
3226.378,0.132237455675,0.00875769240915
3228.306,0.130560478015,0.00728648448394
3230.235,0.128892481371,0.0093618398661
3232.164,0.1272343381,0.0110705239236
3234.092,0.125586900128,0.0104360453891
3236.021,0.123948458494,0.0105577580227
3237.949,0.122320711946,0.0129724246156
3239.877,0.120702808556,0.0164633695493
3241.806,0.119093916824,0.0142362155925
3243.734,0.117495704859,0.0135995139827
3245.663,0.115906514764,0.0151806175518
3247.592,0.114327178042,0.0177844160147
3249.52,0.112758505765,0.0174648845113
3251.448,0.111199676647,0.0168332759459
3253.377,0.109649889826,0.0181834266601
3255.305,0.108110752132,0.0181446810022
3257.234,0.106580666949,0.0183642435939
3259.162,0.105061220679,0.0192135190362
3261.091,0.103550837133,0.0187224874404
3263.02,0.102050306959,0.019955151446
3264.948,0.100560400377,0.0214157443717
3266.876,0.0990803369544,0.0219840520075
3268.805,0.0976093566826,0.0240872975173
3270.733,0.0961489846838,0.0237570094535
3272.662,0.0946977060491,0.0193020917877
3274.591,0.0932562807871,0.0182301237413
3276.519,0.0918254484766,0.0195947476216
3278.448,0.0904037248518,0.0226716820015
3280.376,0.0889925839651,0.0239493952121
3282.304,0.0875912862376,0.0231521687306
3284.233,0.0861991125145,0.0233065985943
3286.161,0.0848175062108,0.0219236238812
3288.09,0.0834450341249,0.0196551377137
3290.019,0.0820824154117,0.0229974390309
3291.947,0.0807303487963,0.0227594925056
3293.875,0.0793881253402,0.0241906677458
3295.804,0.0780550565287,0.0268650890288
3297.732,0.0767325244964,0.0279414874313
3299.661,0.075419157322,0.0286453327214
3301.589,0.0741163167135,0.0277430788187
3303.518,0.0728226511763,0.024017538857
3305.447,0.0715388390118,0.0241727752609
3307.375,0.0702655380916,0.027633986825
3309.303,0.0690020803307,0.0295923803991
3311.232,0.0677478180679,0.0285288421969
3313.16,0.0665040517307,0.026220096657
3315.089,0.0652694911051,0.0242306605172
3317.017,0.0640454161918,0.0241720102714
3318.946,0.0628305572034,0.0244685431706
3320.875,0.0616255515876,0.0257665438334
3322.803,0.0604310163626,0.0241216976777
3324.731,0.0592463242968,0.0246887813335
3326.66,0.0580708685827,0.0279455066321
3328.588,0.0569058679407,0.0291115180898
3330.517,0.0557501138639,0.028104631916
3332.445,0.0546048046456,0.0293191820116
3334.374,0.053468752206,0.0275223526156
3336.302,0.0523431344116,0.0262730588564
3338.231,0.0512267836091,0.0290188446129
3340.159,0.0501208572384,0.0289865924735
3342.088,0.0490242080731,0.024892702874
3344.016,0.0479379731263,0.0267714173518
3345.945,0.0468610255982,0.0300741811136
3347.873,0.0457944820751,0.0314813695371
3349.802,0.0447372361842,0.0303122937865
3351.73,0.0436903840849,0.0299455200897
3353.659,0.0426528398312,0.0300515976499
3355.587,0.0416256791557,0.0310454014063
3357.516,0.0406078365392,0.0308068000726
3359.444,0.0396003672875,0.0300903230997
3361.373,0.0386022263081,0.030292446693
3363.302,0.0376139387013,0.0309572732667
3365.23,0.036636009138,0.0324021996965
3367.158,0.0356679227339,0.0303509795202
3369.087,0.0347091850289,0.030067930103
3371.015,0.0337607900486,0.0340341154401
3372.944,0.0328217539808,0.0312882227704
3374.872,0.0318930504243,0.0285067271963
3376.801,0.0309737159936,0.0285506952062
3378.729,0.0300647038609,0.0313221353183
3380.658,0.0291650710675,0.0319599668381
3382.586,0.0282757503585,0.0340001012537
3384.515,0.0273958192023,0.0336443101822
3386.443,0.0265261899171,0.0307254021177
3388.372,0.025665960398,0.0286082739091
3390.3,0.0248160225367,0.0307101070499
3392.229,0.0239754946548,0.0299702245406
3394.157,0.0231452482172,0.0324703385613
3396.086,0.0223244219725,0.032342514245
3398.014,0.0215138669587,0.0328776219728
3399.943,0.0207127423512,0.0328251126978
3401.871,0.0199218787612,0.0328240021647
3403.8,0.0191404557909,0.0341386304317
3405.728,0.0183692836247,0.0325975616194
3407.657,0.0176075622915,0.0319810357071
3409.585,0.0168560815491,0.0340910527883
3411.514,0.0161140618531,0.033156129191
3413.442,0.0153822725345,0.0319466469035
3415.371,0.0146599544757,0.0336888780321
3417.299,0.0139478565809,0.0336893616542
3419.228,0.0132452401593,0.029759409593
3421.156,0.0125528336883,0.0267805333389
3423.085,0.0118699189039,0.0232771547846
3425.013,0.0111972038566,0.0228263481498
3426.942,0.0105339907094,0.0232323086942
3428.87,0.00988096708594,0.0230281605801
3430.799,0.00923745557589,0.0238510918819
3432.727,0.00860412337623,0.0257807952531
3434.656,0.00798031350336,0.0249798603569
3436.584,0.00736667272749,0.0222805525833
3438.513,0.00676256449181,0.0196030475571
3440.441,0.00616861513973,0.0201434236756
3442.37,0.00558420854123,0.0187476422624
3444.298,0.00500995061295,0.0172451792769
3446.227,0.00444524565163,0.016475102069
3448.155,0.00389067914714,0.0209172658645
3450.084,0.00334567582301,0.0218468845732
3452.012,0.00281080074231,0.0198208580063
3453.941,0.00228549905536,0.0189022094254
3455.869,0.00177031539845,0.0226641332016
3457.798,0.00126471534869,0.0260869474432
3459.726,0.000769223115565,0.0242565526855
3461.655,0.000283324702991,0.0201745748219
3463.583,-0.000192476106342,0.0213796791792
3465.512,-0.000658672881734,0.0219489791589
3467.44,-0.00111478226727,0.0231722976822
3469.369,-0.00156127740548,0.0253028118238
3471.297,-0.00199769536723,0.0273150915059
3473.226,-0.00242448886825,0.0265521548947
3475.154,-0.00284121540621,0.0257634836767
3477.083,-0.00324830727005,0.0302249574267
3479.011,-0.00364534238422,0.0315883323771
3480.94,-0.00403273261087,0.0282604693945
3482.868,-0.00441007630125,0.0295419877538
3484.797,-0.00477776489072,0.0335784320291
3486.725,-0.00513541715731,0.0322823897642
3488.654,-0.00548340410959,0.0301922891798
3490.582,-0.00582136495239,0.0342813871903
3492.511,-0.00614965026748,0.0386943788635
3494.439,-0.00646791968649,0.0393997907064
3496.368,-0.00677650336441,0.0378247192746
3498.296,-0.00707508135962,0.0405917092783
3500.225,-0.00736396340035,0.04048283533
3502.153,-0.00764284997177,0.0370783093875
3504.082,-0.00791203037532,0.0397380689885
3506.01,-0.00817122552295,0.047471741039
3507.939,-0.00842070428931,0.0504155491291
3509.867,-0.00866020801316,0.0530799997851
3511.796,-0.00888998514234,0.0547547379979
3513.724,-0.00910979744239,0.0543892879913
3515.653,-0.00931987293438,0.0517604875103
3517.581,-0.00951999381064,0.0523937429262
3519.51,-0.00971036766545,0.0567997237758
3521.438,-0.00989079711792,0.0582775352156
3523.367,-0.0100614693355,0.0606275261434
3525.295,-0.0102222073642,0.0625981297336
3527.224,-0.0103731779447,0.0580735721628
3529.152,-0.0105142245495,0.0596130823278
3531.081,-0.0106454934928,0.0601906264151
3533.009,-0.0107668486739,0.0607916136592
3534.938,-0.01087841598,0.0585373667532
3536.866,-0.0109800797373,0.0589159940201
3538.795,-0.0110719454062,0.0593737749826
3540.723,-0.0111539177397,0.060483241504
3542.652,-0.0112260817714,0.0583503110244
3544.58,-0.0112883626811,0.0499409453153
3546.509,-0.0113408250756,0.0459587367303
3548.437,-0.0113834145616,0.0497125361627
3550.366,-0.0114161753189,0.0480784617841
3552.294,-0.011439073381,0.0486224353541
3554.223,-0.0114521325012,0.058446977341
3556.151,-0.0114553391395,0.0656254594266
3558.08,-0.0114486966225,0.0697666992506
3560.008,-0.0114322118371,0.0763710574855
3561.937,-0.0114058676828,0.0871649902948
3563.865,-0.0113696914736,0.0918826804557
3565.794,-0.0113236456822,0.0833983449645
3567.722,-0.0112677780492,0.0821406174306
3569.651,-0.0112020306206,0.0919005042888
3571.579,-0.0111264715638,0.096717293357
3573.508,-0.011041022498,0.0929555074874
3575.436,-0.0109457720174,0.0790353302909
3577.365,-0.0108406213144,0.0657066882304
3579.293,-0.0107256794101,0.061916420338
3581.222,-0.0106008270699,0.0597674095019
3583.15,-0.0104661937417,0.0549617966933
3585.079,-0.0103216397644,0.0485304742939
3587.007,-0.0101673150124,0.0463343017707
3588.936,-0.0100030593979,0.06056810539
3590.864,-0.00982904322215,0.0719183993325
3592.793,-0.00964508597045,0.0843883387755
3594.721,-0.0094513783709,0.104329575076
3596.65,-0.00924771948201,0.125242867567
3598.578,-0.00903432045867,0.126811031264
3600.507,-0.0088109599326,0.104824808108
3602.435,-0.00857786948547,0.0790201013666
3604.364,-0.00833480732221,0.0584303294085
3606.292,-0.00808202545129,0.03964171412
3608.221,-0.00781926165085,0.0295517998091
3610.149,-0.00754678835614,0.0300682681904
3612.078,-0.00726432291851,0.0257577020755
3614.006,-0.00697215820001,0.0250157243579
3615.935,-0.0066699911252,0.0228440535936
3617.863,-0.0063581349829,0.0160670200532
3619.792,-0.00603626627091,0.014618597212
3621.72,-0.00570471870483,0.023572402926
3623.649,-0.00536314835565,0.0249628653272
3625.577,-0.00501190936577,0.0216656038973
3627.506,-0.00465063737941,0.0146829834827
3629.434,-0.00427970696574,0.0148452583657
3631.363,-0.00389873334219,0.0204922843378
3633.291,-0.00350811150473,0.017468992936
3635.22,-0.003107436244,0.0199966508402
3637.148,-0.00269712298276,0.0250452479196
3639.077,-0.00227674608483,0.0256276002241
3641.005,-0.0018467413998,0.0242732045556
3642.934,-0.00140666286469,0.0226423850925
3644.862,-0.000956966755869,0.0171381049344
3646.791,-0.000497186583576,0.00383287848694
3648.719,-2.77990509616e-05,0.000890530275059
3650.648,0.000451682758513,0.00933604593855
3652.576,0.000940761714919,0.0195424082032
3654.505,0.00143994516158,0.0179667060059
3656.433,0.00194871554178,0.0175029169256
3658.362,0.00246760062562,0.0202828289711
3660.29,0.00299606242961,0.0229510719078
3662.219,0.00353464915064,0.0242769347976
3664.147,0.00408280237842,0.0231975979046
3666.076,0.00464109073663,0.0167174456022
3668.004,0.0052089353882,0.00663479250021
3669.933,0.0057869253836,0.0026089100556
3671.861,0.00637446145896,0.00964292457157
3673.79,0.00697215309154,-0.00243813914229
3675.718,0.00757938059069,-0.00757938059069
3677.647,0.00819677386046,0.00509545296659
3679.575,0.0088236927834,0.00615356386272
3681.504,0.00946078769035,0.0077882773051
3683.432,0.0101073980371,0.00985975045174
3685.361,0.0107641945812,0.00688869129768
3687.289,0.0114304963517,-0.00423550999776
3689.218,0.0121069945331,-0.0100494791181
3691.146,0.0127929877274,-0.00303457268644
3693.075,0.0134891875459,0.00436687229441
3695.003,0.014194872164,0.0040220488913
3696.932,0.0149107736197,0.00472887057318
3698.86,0.0156361496616,0.00400349453129
