baseline wavenumber (cm-1),baseline absorbance (cm-1),baseline-subtracted absorbance (cm-1)
3199.379,0.163515617103,1.06581410364e-14
3201.308,0.161694415108,0.000865475723594
3203.236,0.159884002943,0.00114905073164
3205.165,0.158082502585,0.00184370786665
3207.093,0.156291781843,0.00219148915636
3209.021,0.154510904261,0.00267195230454
3210.95,0.152738953805,0.0033355433142
3212.878,0.150977767646,0.00472879254794
3214.807,0.149225518828,0.0048076359283
3216.736,0.147483123382,0.00574390583093
3218.664,0.145751476911,0.00656783977739
3220.593,0.144028783102,0.00646045171007
3222.521,0.142316828056,0.00592233094557
3224.449,0.140614716168,0.00589139926688
3226.378,0.138921572261,0.0062295446901
3228.306,0.137239151798,0.00767038019471
3230.235,0.135565709528,0.00854628885489
3232.164,0.133902120631,0.00961096943309
3234.092,0.132249239855,0.00977036996984
3236.021,0.130605352595,0.0100077071439
3237.949,0.128972163244,0.010578529165
3239.877,0.127348817051,0.0113608766714
3241.806,0.125734479693,0.0108888903664
3243.734,0.124130824925,0.0121145000526
3245.663,0.122536189204,0.0128656100484
3247.592,0.120951406855,0.0134997202044
3249.52,0.119377291775,0.0135500305741
3251.448,0.117813019854,0.0138214691786
3253.377,0.116257787407,0.0139059647406
3255.305,0.11471320691,0.0144361916544
3257.234,0.113177676101,0.0138479986188
3259.162,0.111652787027,0.0139309590557
3261.091,0.110136957855,0.0135510033297
3263.02,0.108630982055,0.014359010869
3264.948,0.10713563267,0.0158730603449
3266.876,0.105650126445,0.0177522792969
3268.805,0.104173700547,0.0179328394312
3270.733,0.102707885745,0.0182948434579
3272.662,0.101251161484,0.0184425613505
3274.591,0.0998042905957,0.0184662036932
3276.519,0.098368015482,0.0175149320566
3278.448,0.0969408462311,0.0180889728329
3280.376,0.0955242625412,0.0189526403194
3282.304,0.0941175220106,0.0192287834579
3284.233,0.0927199026614,0.0183869405611
3286.161,0.0913328535546,0.019624894348
3288.09,0.0899549358425,0.0202826058536
3290.019,0.0885868715031,0.0203396421934
3291.947,0.0872293620847,0.0202471364496
3293.875,0.0858816958254,0.0217019491761
3295.804,0.0845431813878,0.0227043673841
3297.732,0.0832152065523,0.0226035541876
3299.661,0.0818963937518,0.0220761120604
3301.589,0.0805881103402,0.0225413751546
3303.518,0.0792889991769,0.0235043900883
3305.447,0.0779997413862,0.0252282986421
3307.375,0.0767209976629,0.0260299373417
3309.303,0.0754520970988,0.025456120833
3311.232,0.0741923892099,0.0247078432777
3313.16,0.0729431800696,0.0261031152907
3315.089,0.0717031738179,0.0255469019933
3317.017,0.0704736561014,0.0257180956423
3318.946,0.0692533514868,0.0254504795048
3320.875,0.0680429002449,0.0249703414412
3322.803,0.0668429222167,0.0248052128282
3324.731,0.0656527873478,0.0262354164326
3326.66,0.0644718860076,0.0266657870946
3328.588,0.0633014425625,0.0278483603284
3330.517,0.0621402428595,0.0280816311929
3332.445,0.0609894908382,0.0284151386979
3334.374,0.0598479927723,0.0273995559995
3336.302,0.0587169321748,0.0270411796214
3338.231,0.0575951357462,0.0271435683881
3340.159,0.0564837665724,0.0279451225411
3342.088,0.055381671781,0.028762672705
3344.016,0.054289994031,0.0296506710857
3345.945,0.0532076008767,0.029817770598
3347.873,0.0521356145506,0.030935243632
3349.802,0.0510729230335,0.0314101458031
3351.73,0.0500206281311,0.0318604999392
3353.659,0.0489776382512,0.031687478498
3355.587,0.0479450347726,0.0316759093293
3357.516,0.0469217465299,0.0315221026564
3359.444,0.0459088344751,0.0321645507468
3361.373,0.0449052478696,0.0327850381913
3363.302,0.0439115146367,0.0326451415849
3365.23,0.0429281422702,0.0313152621571
3367.158,0.041954613063,0.0326445985007
3369.087,0.0409904297319,0.032514573806
3371.015,0.0400365919484,0.0322842409637
3372.944,0.0390921102545,0.0320551655972
3374.872,0.0381579638948,0.033208153562
3376.801,0.037233183838,0.0336012445457
3378.729,0.0363187289022,0.0340284863005
3380.658,0.0354136504826,0.0341557420172
3382.586,0.0345188869705,0.0342832963914
3384.515,0.0336335101881,0.0340026972313
3386.443,0.0327584380999,0.0349722805901
3388.372,0.0318927629546,0.0348822294643
3390.3,0.0310373822901,0.0360898794101
3392.229,0.0301914087821,0.0371405431031
3394.157,0.0293557195414,0.038310306942
3396.086,0.0285294476705,0.0385786085308
3398.014,0.0277134498536,0.0398226868086
3399.943,0.02690687962,0.0409294693136
3401.871,0.0261105732269,0.0422463458068
3403.8,0.0253237046304,0.0423190730912
3405.728,0.0245470896611,0.0436430447774
3407.657,0.0237799227018,0.0444531714052
3409.585,0.0230229991562,0.0450857646161
3411.514,0.0222755338341,0.0437610576953
3413.442,0.0215383017124,0.0436486991974
3415.371,0.0208105380274,0.0431589353376
3417.299,0.0200929973295,0.0436460100495
3419.228,0.0193849352817,0.0448448231333
3421.156,0.0186870860076,0.0448012390707
3423.085,0.017998725597,0.0440370572798
3425.013,0.0173205677467,0.0451513821169
3426.942,0.0166519089733,0.0460156337337
3428.87,0.0159934425467,0.0479876551992
3430.799,0.0153444854105,0.0490833928873
3432.727,0.0147057104077,0.0502316190171
3434.656,0.0140764549087,0.051192422075
3436.584,0.0134573713297,0.0524008112236
3438.513,0.0128478174679,0.0515401336086
3440.441,0.0122484253127,0.0514900766584
3442.37,0.011658573088,0.0520900370403
3444.298,0.0110788723566,0.0537113833797
3446.227,0.0105087217692,0.0532823426198
3448.155,0.00994871246155,0.0535856047324
3450.084,0.00939826351128,0.0552914160601
3452.012,0.00885794562745,0.0561956276061
3453.941,0.00832719831435,0.0556276182226
3455.869,0.00780657185432,0.0562639830835
3457.798,0.00729552617841,0.0562342423448
3459.726,0.00679459114217,0.0573027504125
3461.655,0.00630324710344,0.0581989261504
3463.583,0.00582200349099,0.0605380490714
3465.512,0.00535036108945,0.0622049810717
3467.44,0.00488880890079,0.0638325092029
3469.369,0.00443686813643,0.0645816297914
3471.297,0.00399500737156,0.0659059326871
3473.226,0.00356276824439,0.0670988106498
3475.154,0.00314059890331,0.0670084964166
3477.083,0.00272806141332,0.0668089849831
3479.011,0.00232558349603,0.0698405946097
3480.94,0.00193274764323,0.0713746414197
3482.868,0.00154996114973,0.0737280131755
3484.797,0.00117682693412,0.0753621400122
3486.725,0.000813731864408,0.0750474831361
3488.654,0.000460299285972,0.0729542362442
3490.582,0.000116895640058,0.0724242951009
3492.511,-0.000216835301192,0.0716178259006
3494.439,-0.000540547523318,0.0720815361011
3496.368,-0.000854576827383,0.0717759353637
3498.296,-0.00115859762572,0.0720349748621
3500.225,-0.0014529252926,0.0729959355018
3502.153,-0.00173725466714,0.0749051511596
3504.082,-0.00201188069684,0.0736499075845
3506.01,-0.00227651864759,0.0753857878278
3507.939,-0.0025314430401,0.0800160281002
3509.867,-0.00277638956706,0.0855303570188
3511.796,-0.00301161232239,0.0868233984338
3513.724,-0.00323686742556,0.0868803527182
3515.653,-0.00345238854371,0.0879914565716
3517.581,-0.00365795222309,0.0907665138323
3519.51,-0.00385377170404,0.0940033724318
3521.438,-0.00403964395964,0.0999433132207
3523.367,-0.00421576180341,0.103062926465
3525.295,-0.00438194263521,0.104129238703
3527.224,-0.0045383588418,0.101369956941
3529.152,-0.00468484824981,0.098984858358
3531.081,-0.00482156281921,0.0964818276529
3533.009,-0.00494836080343,0.0936989925633
3534.938,-0.00506537373565,0.090834099097
3536.866,-0.00517248029608,0.087229995711
3538.795,-0.00526979159111,0.0857115180644
3540.723,-0.00535720672775,0.087023031048
3542.652,-0.0054348163856,0.0866028139596
3544.58,-0.00550254009844,0.0841283361158
3546.509,-0.00556044811911,0.0778231591269
3548.437,-0.00560848040816,0.0752243704314
3550.366,-0.00564668679164,0.0772437756423
3552.294,-0.00567502765691,0.0800164812099
3554.223,-0.00569353240321,0.0845508052224
3556.151,-0.00570218184468,0.0935274118053
3558.08,-0.00570098495379,0.103592928752
3560.008,-0.00568994297148,0.116096290894
3561.937,-0.0056690444434,0.128832392265
3563.865,-0.0056383110373,0.138343759334
3565.794,-0.00559771087204,0.140036202735
3567.722,-0.00554728604214,0.137618952877
3569.651,-0.0054869842397,0.144871397461
3571.579,-0.00541686798601,0.153422023146
3573.508,-0.00533686454638,0.150497584247
3575.436,-0.00524705686891,0.132949472718
3577.365,-0.00514735179209,0.109559562446
3579.293,-0.00503785269083,0.091897248223
3581.222,-0.00491844597683,0.0815246321691
3583.15,-0.00478925545177,0.0778757812781
3585.079,-0.00465014710059,0.0775441125307
3587.007,-0.00450126515174,0.0768276575504
3588.936,-0.00434245516337,0.0755175284475
3590.864,-0.00417388179073,0.085117983681
3592.793,-0.00399537016518,0.0996761545582
3594.721,-0.00380710536875,0.118483644336
3596.65,-0.00360889210601,0.135356087092
3598.578,-0.00340093588579,0.141290858053
3600.507,-0.00318302098587,0.122608372244
3602.435,-0.00295537334186,0.0910504911019
3604.364,-0.00271775680475,0.0690742715121
3606.292,-0.00247041773695,0.0583174813173
3608.221,-0.00221309956266,0.0491750928913
3610.149,-0.00194606907107,0.0434304519681
3612.078,-0.00166904925959,0.0402670478444
3614.006,-0.00138232734421,0.0380410759543
3615.935,-0.00108560589555,0.0394511168629
3617.863,-0.000779192556376,0.0388480291075
3619.792,-0.000462769470531,0.0331899503055
3621.72,-0.000136664707565,0.0323751161379
3623.649,0.000199460015466,0.0339090005122
3625.577,0.000545256202219,0.035581297927
3627.506,0.000901082562436,0.0343127049641
3629.434,0.00126657017298,0.0204573760516
3631.363,0.00164209817038,0.022155031113
3633.291,0.00202727720471,0.0280237689896
3635.22,0.0024225068393,0.0261845890871
3637.148,0.00282737729743,0.0282541955318
3639.077,0.0032423085692,0.0294474720838
3641.005,0.00366687045111,0.0293529415372
3642.934,0.00410150336007,0.0273222305932
3644.862,0.00454575666577,0.0298154077939
3646.791,0.00500009121191,0.029676447755
3648.719,0.00546403594141,0.0212088640889
3650.648,0.00593807212473,0.0108753312918
3652.576,0.00642170827802,0.0133078985147
3654.505,0.00691544609853,0.018421155539
3656.433,0.00741877367561,0.0156935279518
3658.362,0.0079322131333,0.0131432948016
3660.29,0.00845523213417,0.0150967743351
3662.219,0.00898837322904,0.0160303268619
3664.147,0.00953108365371,0.0178792064504
3666.076,0.0100839263858,0.019734632191
3668.004,0.0106463282342,0.0205100449589
3669.933,0.0112188726035,0.0136542700226
3671.861,0.0118009658757,0.0104612397242
3673.79,0.0123932118821,0.0138329075963
3675.718,0.0129949965782,0.00280000999213
3677.647,0.0136069442218,0.00232250084038
3679.575,0.0142284203416,0.00626789018099
3681.504,0.0148600696224,0.006715792098
3683.432,0.015501237166,0.00889631665991
3685.361,0.016152588084,0.00808272981754
3687.289,0.0168134470514,0.00783024040436
3689.218,0.0174844996066,0.00232395081291
3691.146,0.0181650499978,0.00202852121419
3693.075,0.0188558041901,0.00032290803063
3695.003,0.0195560460051,0.00297604739426
3696.932,0.0202665018347,0.00202956609216
3698.86,0.0209864350734,0.00130963285338
