baseline wavenumber (cm-1),baseline absorbance (cm-1),baseline-subtracted absorbance (cm-1)
3199.379,0.167198574125,1.73194791842e-14
3201.308,0.165414554976,-0.000142660099572
3203.236,0.163641306381,0.00128390505375
3205.165,0.16187698887,0.00195959462053
3207.093,0.160123431699,0.00196191114031
3209.021,0.158379717687,0.00304545880016
3210.95,0.156644950077,0.00463693990643
3212.878,0.154920927489,0.00583604462226
3214.807,0.153205861517,0.00479162223212
3216.736,0.151500648917,0.00643602543771
3218.664,0.149806166018,0.00873475800554
3220.593,0.148120655055,0.0094473186639
3222.521,0.146445863579,0.0100719249159
3224.449,0.144780915262,0.0107391099001
3226.378,0.143124954202,0.0116429915591
3228.306,0.141479697309,0.0123401111766
3230.235,0.139843437885,0.0124138487577
3232.164,0.138217031834,0.015569925599
3234.092,0.13660131463,0.0157367017259
3236.021,0.134994610216,0.0132073189095
3237.949,0.133398584435,0.0136769729843
3239.877,0.131812401814,0.0142129703819
3241.806,0.130235247302,0.0141007420742
3243.734,0.128668756104,0.0142417073058
3245.663,0.127111303229,0.013729893388
3247.592,0.125563703727,0.0157139925057
3249.52,0.124026752217,0.0180690750001
3251.448,0.122499643867,0.0203926466201
3253.377,0.120981594267,0.0195150157843
3255.305,0.11947417734,0.0188755815191
3257.234,0.117975829377,0.0197504584541
3259.162,0.116488103874,0.0211529110135
3261.091,0.115009457548,0.0212643944122
3263.02,0.113540664595,0.0201935214678
3264.948,0.112082478781,0.0205040173401
3266.876,0.110634136126,0.0214588952577
3268.805,0.109194893074,0.0217476525331
3270.733,0.107766241843,0.0228394057425
3272.662,0.106346700428,0.0221201339886
3274.591,0.104937012386,0.0218372938973
3276.519,0.103537900843,0.0221026946693
3278.448,0.102147914439,0.0236513446652
3280.376,0.10076849432,0.025120231479
3282.304,0.0993989173596,0.0253438658934
3284.233,0.0980384808567,0.024067830739
3286.161,0.0966885953205,0.0250203583385
3288.09,0.0953478604548,0.0256733179893
3290.019,0.0940169789617,0.0274745985877
3291.947,0.0926966331139,0.0287341350415
3293.875,0.0913861304253,0.0298866730974
3295.804,0.090084798834,0.0302859986777
3297.732,0.0887939875692,0.0296438400676
3299.661,0.0875123576151,0.0304610120641
3301.589,0.0862412377741,0.033192605799
3303.518,0.0849793094571,0.0342679121827
3305.447,0.0837272345128,0.0335244604617
3307.375,0.0824856543601,0.032951544214
3309.303,0.0812539173667,0.0328003917128
3311.232,0.0800313923241,0.0326767225847
3313.16,0.0788193467544,0.0341026494712
3315.089,0.0776165233491,0.0358101209509
3317.017,0.0764241692032,0.0364436577347
3318.946,0.075241047435,0.036804804246
3320.875,0.0740677790394,0.0369006280341
3322.803,0.0729049645819,0.0374522032381
3324.731,0.0717519932836,0.0379670253786
3326.66,0.0706082747898,0.0372903063244
3328.588,0.0694749949153,0.0386357201193
3330.517,0.0683509780586,0.0407686836454
3332.445,0.0672373896079,0.0426200228475
3334.374,0.0661330743885,0.0412622565684
3336.302,0.0650391773616,0.0408401124965
3338.231,0.0639545637793,0.0409751908863
3340.159,0.0628803581762,0.0437887548454
3342.088,0.0618154462311,0.0443951499806
3344.016,0.0607609320517,0.0442803065028
3345.945,0.0597157217438,0.0449596120089
3347.873,0.0586808989883,0.0480885145855
3349.802,0.0576553903176,0.04943554419
3351.73,0.0566402589858,0.0498957024317
3353.659,0.0556344519523,0.0495839725951
3355.587,0.0546390120443,0.0492451006278
3357.516,0.053652906648,0.0508330093372
3359.444,0.0526771581638,0.0521093099986
3361.373,0.0517107544046,0.0523407588406
3363.302,0.0507542040181,0.0530110857003
3365.23,0.0498079952223,0.0522357595831
3367.158,0.0488716295857,0.0522799046283
3369.087,0.0479446291009,0.0504068771548
3371.015,0.0470279548881,0.0496009680168
3372.944,0.0461206560405,0.0517115240113
3374.872,0.0452236732515,0.0535989310681
3376.801,0.044336076041,0.0536177227987
3378.729,0.0434587846758,0.0525592484548
3380.658,0.0425908891026,0.0527058188026
3382.586,0.0417332891612,0.0532737004244
3384.515,0.0408850952251,0.0538978781446
3386.443,0.0400471867075,0.055694408316
3388.372,0.0392186944086,0.0573707373381
3390.3,0.0384004773147,0.0582158643362
3392.229,0.037591686653,0.0569833465475
3394.157,0.036793160983,0.057424005439
3396.086,0.0360040719585,0.058867319668
3398.014,0.0352252377122,0.0611157142693
3399.943,0.0344558503249,0.0627808170407
3401.871,0.0336967075024,0.0645017268304
3403.8,0.0329470217523,0.0656278017607
3405.728,0.0322075703536,0.0656078346929
3407.657,0.0314775862407,0.0664762125991
3409.585,0.0307578262658,0.0679739134421
3411.514,0.03004754379,0.0697742217793
3413.442,0.0293474752389,0.069479322832
3415.371,0.0286568944003,0.0670368219623
3417.299,0.027976517273,0.066514291422
3419.228,0.0273056380716,0.0647199438114
3421.156,0.0266449523681,0.064581370411
3423.085,0.0259937748039,0.0672567319411
3425.013,0.0253527805242,0.069737385129
3426.942,0.0247213045971,0.071204815484
3428.87,0.0241000017412,0.0704652460396
3430.799,0.0234882274513,0.0691957733874
3432.727,0.0228866160192,0.0714836223257
3434.656,0.0222945433665,0.0753104751559
3436.584,0.0217126233582,0.0763586005182
3438.513,0.0211402523427,0.0757542748119
3440.441,0.0205780237581,0.0758170975112
3442.37,0.0200253543798,0.075178392038
3444.298,0.0194828172191,0.0774449104667
3446.227,0.018949849478,0.0761902917117
3448.155,0.018427003741,0.0761585138378
3450.084,0.017913737637,0.0796252293022
3452.012,0.0174105833239,0.0808165083096
3453.941,0.0169170188571,0.0808861544147
3455.869,0.0164335559677,0.0834210606535
3457.798,0.0159596931382,0.0831400482472
3459.726,0.0154959216726,0.0831970258357
3461.655,0.0150417604802,0.0841173923821
3463.583,0.0145976804384,0.0867460673774
3465.512,0.0141632208832,0.08907365617
3467.44,0.0137388322652,0.0912318114757
3469.369,0.0133240743471,0.0932639594824
3471.297,0.0129193771529,0.095262631654
3473.226,0.0125243208721,0.0944509359952
3475.154,0.0121393151017,0.0944878604068
3477.083,0.011763960458,0.0972106673466
3479.011,0.0113986461114,0.100639866505
3480.94,0.0110429931049,0.101552938956
3482.868,0.0106973701821,0.103750452562
3484.797,0.0103614188128,0.106423721328
3486.725,0.0100354873137,0.106281700077
3488.654,0.00971923758163,0.106041928281
3490.582,0.00941299750635,0.105848063513
3492.511,0.00911644941145,0.103642689472
3494.439,0.00882990075996,0.10192322708
3496.368,0.00855305430225,0.0996181206471
3498.296,0.00828619707455,0.0999496315408
3500.225,0.00802905225402,0.100841430726
3502.153,0.00778188645011,0.0950017159823
3504.082,0.00754444326677,0.0930003949243
3506.01,0.00731696888665,0.101009025382
3507.939,0.00709922734049,0.106204749734
3509.867,0.00689144438417,0.109529887831
3511.796,0.00669340447519,0.115359087312
3513.724,0.00650531294265,0.119602186883
3515.653,0.00632697467087,0.124714473571
3517.581,0.00615857456212,0.12976230333
3519.51,0.00599993792751,0.134552588808
3521.438,0.00585122924256,0.139277379131
3523.367,0.00571229424514,0.139969539822
3525.295,0.00558327698398,0.140885584413
3527.224,0.00546404362374,0.137986015788
3529.152,0.00535471778636,0.134901800002
3531.081,0.00525518606331,0.133155731669
3533.009,0.00516555164973,0.129061050713
3534.938,0.00508572156386,0.125771201621
3536.866,0.00501577857407,0.121816541269
3538.795,0.00495565012539,0.122202384403
3540.723,0.00490539855939,0.122780699155
3542.652,0.00486497174789,0.121066740002
3544.58,0.00483441160568,0.11163969198
3546.509,0.00481368643137,0.0987317808224
3548.437,0.00480281771295,0.0970672458923
3550.366,0.00480179417582,0.100975797213
3552.294,0.00481061688119,0.0988781368757
3554.223,0.00482929498125,0.106745458636
3556.151,0.00485780911041,0.122377460338
3558.08,0.00489618884765,0.139199009307
3560.008,0.0049443944006,0.155606734417
3561.937,0.00500247577502,0.169018982253
3563.865,0.00507037275177,0.177476632211
3565.794,0.00514815576338,0.173499359439
3567.722,0.00523574416391,0.171928231512
3569.651,0.00533322881271,0.199323233059
3571.579,0.00544050863703,0.223771765075
3573.508,0.00555769492301,0.222223111675
3575.436,0.00568466617112,0.192773431264
3577.365,0.00582155409429,0.155208361332
3579.293,0.00596821676619,0.125169687756
3581.222,0.00612480632654,0.105950401614
3583.15,0.00629116042224,0.0937885208527
3585.079,0.00646745161977,0.0855892339188
3587.007,0.00665349713925,0.0729484459655
3588.936,0.00684948997397,0.0743132275769
3590.864,0.00705522691725,0.0933816221776
3592.793,0.00727092138915,0.107615148367
3594.721,0.00749634975622,0.119914707768
3596.65,0.00773174586531,0.13688452589
3598.578,0.00797686565617,0.143632486409
3600.507,0.00823196340244,0.122893709345
3602.435,0.00849677461709,0.0909989267878
3604.364,0.00877157400054,0.0733861110487
3606.292,0.00905607663898,0.060599336795
3608.221,0.00935057765962,0.0458933588749
3610.149,0.00965477172186,0.043533527712
3612.078,0.00996897437968,0.0417941485671
3614.006,0.0102928598657,0.0323715701336
3615.935,0.0106267641607,0.034920170906
3617.863,0.0109703410705,0.033685771322
3619.792,0.0113239470027,0.0280351080053
3621.72,0.0116872153363,0.0306039707963
3623.649,0.0120605229057,0.0348546235261
3625.577,0.0124434826631,0.0343905845767
3627.506,0.0128364918697,0.0258746285609
3629.434,0.0132391430508,0.00458499897754
3631.363,0.0136518538946,0.0181455180213
3633.291,0.0140741964996,0.0261166191851
3635.22,0.0145066089805,0.0308620916556
3637.148,0.0149486430093,0.0355975930989
3639.077,0.0154007571274,0.0348131241895
3641.005,0.0158624825799,0.0351768687865
3642.934,0.0163342983352,0.0329842170768
3644.862,0.0168157152116,0.0346915889053
3646.791,0.0173072326041,0.0222339011067
3648.719,0.0178083409042,-0.00516313226508
3650.648,0.0183195599339,-0.010137551127
3652.576,0.0188403596578,0.0141260204359
3654.505,0.0193712803247,0.0248934152789
3656.433,0.0199117714724,0.0161090574925
3658.362,0.0204623937764,0.0196899791879
3660.29,0.0210225763479,0.0257552247285
3662.219,0.0215929002892,0.0280010047923
3664.147,0.0221727742845,0.0295463142736
3666.076,0.0227627998629,0.0282440499309
3668.004,0.023362365282,0.0234930201937
3669.933,0.0239720924976,0.00602860646099
3671.861,0.0245913493404,0.00641969420468
3673.79,0.0252207781932,0.0125201877675
3675.718,0.0258597264599,-0.0125187045825
3677.647,0.0265088569499,-0.0061184885987
3679.575,0.0271674966403,0.00503946498686
3681.504,0.0278363287675,0.0122573316785
3683.432,0.0285146598817,0.0160470931063
3685.361,0.0292031936461,0.0153396874611
3687.289,0.0299012161841,0.00919677780486
3689.218,0.0306094515856,-0.0108484954103
3691.146,0.0313271655474,-0.0114956145584
3693.075,0.0320551025862,-0.000541158363045
3695.003,0.0327925079718,0.00754473952945
3696.932,0.0335401466477,0.00646859033423
3698.86,0.0342972434571,0.00571149352482
