wavenumber (/cm),baseline value (/cm),baseline-subtracted absorbance (/cm),
3.199378999999999905e+03,1.926244870109989904e-01,-2.817754978248543374e-03
3.201307999999999993e+03,1.906629227175500318e-01,-2.296299852898253668e-03
3.203235999999999876e+03,1.887129242825729136e-01,3.483311505616537573e-04
3.205164999999999964e+03,1.867724688861116533e-01,3.560392733215150818e-03
3.207092999999999847e+03,1.848435684051956684e-01,4.644453428424066832e-03
3.209021000000000186e+03,1.829252141662891518e-01,5.634019635388815006e-03
3.210949999999999818e+03,1.810164193788637021e-01,5.004201261993468375e-03
3.212878000000000156e+03,1.791191630940183188e-01,5.259286314654498806e-03
3.214806999999999789e+03,1.772314772035770147e-01,5.777215811686331470e-03
3.216735999999999876e+03,1.753543484980646383e-01,6.582273355771411927e-03
3.218664000000000215e+03,1.734887418793356062e-01,6.398299463027695699e-03
3.220592999999999847e+03,1.716327220708073753e-01,7.917616552461620438e-03
3.222521000000000186e+03,1.697882134061359238e-01,7.800687837167419314e-03
3.224449000000000069e+03,1.679542509834774933e-01,6.303355404877919455e-03
3.226378000000000156e+03,1.661298917839850731e-01,5.696247910748603038e-03
3.228306000000000040e+03,1.643170273153842231e-01,8.538122790751445645e-03
3.230235000000000127e+03,1.625137770128759485e-01,1.095074335506102114e-02
3.232164000000000215e+03,1.607210838953001542e-01,1.225915465721172382e-02
3.234092000000000098e+03,1.589398690928121027e-01,1.118810017838978155e-02
3.236021000000000186e+03,1.571682848722204540e-01,1.250507002518175259e-02
3.237949000000000069e+03,1.554081680237970886e-01,1.328595913682154017e-02
3.239876999999999953e+03,1.536585974173831914e-01,1.268083450417750724e-02
3.241806000000000040e+03,1.519186738058238006e-01,1.167775801465534280e-02
3.243733999999999924e+03,1.501902011534710368e-01,1.404966541885283027e-02
3.245663000000000011e+03,1.484713864388957916e-01,1.428520913373132473e-02
3.247592000000000098e+03,1.467631289092565794e-01,1.475420658048365308e-02
3.249519999999999982e+03,1.450663059230130614e-01,1.694739063010530788e-02
3.251447999999999865e+03,1.433800291787825643e-01,1.840593059075146254e-02
3.253376999999999953e+03,1.417034322581756101e-01,1.744935253915586015e-02
3.255304999999999836e+03,1.400382534680062463e-01,1.611281294258712360e-02
3.257233999999999924e+03,1.383827654443834376e-01,1.516194798935760479e-02
3.259161999999999807e+03,1.367386846082752072e-01,1.727441050948483325e-02
3.261090999999999894e+03,1.351043054816365441e-01,1.778228099364903558e-02
3.263019999999999982e+03,1.334804835399268086e-01,1.823397617906644119e-02
3.264947999999999865e+03,1.318680523699313767e-01,1.894408752696541409e-02
3.266876000000000204e+03,1.302661674419489657e-01,2.075291675900120536e-02
3.268804999999999836e+03,1.286740061092750409e-01,2.213078010319843858e-02
3.270733000000000175e+03,1.270932191353502105e-01,2.357098787971095843e-02
3.272661999999999807e+03,1.255221666996604313e-01,2.370944150816328699e-02
3.274590999999999894e+03,1.239616714489066851e-01,2.558372933952959838e-02
3.276518999999999778e+03,1.224125341410911005e-01,2.691341349865417065e-02
3.278447999999999865e+03,1.208731477873214999e-01,2.629855948044360070e-02
3.280376000000000204e+03,1.193451084335706014e-01,2.487753889282179331e-02
3.282304000000000087e+03,1.178276153218291711e-01,2.515799066219995272e-02
3.284233000000000175e+03,1.163198895770918284e-01,2.614380697602655679e-02
3.286161000000000058e+03,1.148234944194150842e-01,2.678611843816097737e-02
3.288090000000000146e+03,1.133368775716618870e-01,2.656743861149793440e-02
3.290018999999999778e+03,1.118608179088376176e-01,2.746175360637517771e-02
3.291947000000000116e+03,1.103960724172701191e-01,2.775156227392569508e-02
3.293875000000000000e+03,1.089418731677156416e-01,2.729332849002216732e-02
3.295804000000000087e+03,1.074974741139307355e-01,2.631642965641195486e-02
3.297731999999999971e+03,1.060643728184338386e-01,2.735008690055940050e-02
3.299661000000000058e+03,1.046410826616295253e-01,2.921813597781250382e-02
3.301588999999999942e+03,1.032290793201973145e-01,3.155574328164237330e-02
3.303518000000000029e+03,1.018268980603735940e-01,3.268391766791914343e-02
3.305447000000000116e+03,1.004352739854859067e-01,3.322997922385403924e-02
3.307375000000000000e+03,9.905492031017004706e-02,3.338041780769107625e-02
3.309302999999999884e+03,9.768511287686010292e-02,3.227924576056029338e-02
3.311231999999999971e+03,9.632514941100467354e-02,3.270429059708185315e-02
3.313159999999999854e+03,9.497643993175586274e-02,3.548263719348421219e-02
3.315088999999999942e+03,9.363758536288813161e-02,3.654243586424216206e-02
3.317016999999999825e+03,9.230997383770045417e-02,3.548943483509850449e-02
3.318945999999999913e+03,9.099222816581331585e-02,3.366042522547346705e-02
3.320875000000000000e+03,8.968503967885865791e-02,3.543594990973936154e-02
3.322802999999999884e+03,8.838907781978377898e-02,3.685851643878290673e-02
3.324731000000000222e+03,8.710366220271836823e-02,3.741227836131681694e-02
3.326659999999999854e+03,8.582813432479952098e-02,3.700620308549060211e-02
3.328588000000000193e+03,8.456381666179879630e-02,3.912763183713985349e-02
3.330516999999999825e+03,8.330939768086409458e-02,3.929783975975048582e-02
3.332445000000000164e+03,8.206617797191739783e-02,3.687762572766817293e-02
3.334373999999999796e+03,8.083286788796684164e-02,3.741776892594199377e-02
3.336302000000000135e+03,7.961074613308838366e-02,3.963748999346575208e-02
3.338231000000000222e+03,7.839854494611842028e-02,4.042187858567174163e-02
3.340159000000000106e+03,7.719752114530109566e-02,4.177645034969537652e-02
3.342088000000000193e+03,7.600642885531527781e-02,4.278180019552876856e-02
3.344016000000000076e+03,7.482650300855908654e-02,4.300948708544678756e-02
3.345945000000000164e+03,7.365651961555741423e-02,4.233110294584965794e-02
3.347873000000000047e+03,7.249769172285880359e-02,4.346990152489214887e-02
3.349802000000000135e+03,7.134881722684482952e-02,4.407143952035016965e-02
3.351730000000000018e+03,7.021108728820735223e-02,4.449861148870562499e-02
3.353659000000000106e+03,6.908332168917397098e-02,4.408557551086647597e-02
3.355586999999999989e+03,6.796668970460117976e-02,4.574443937656733072e-02
3.357516000000000076e+03,6.686003300255194404e-02,4.780542236993366723e-02
3.359443999999999960e+03,6.576449897203673345e-02,4.790291232888312101e-02
3.361373000000000047e+03,6.467895116697164326e-02,4.589260953251285413e-02
3.363302000000000135e+03,6.360396054683548073e-02,4.669190016275717725e-02
3.365230000000000018e+03,6.254007618244017408e-02,4.874524171910638026e-02
3.367157999999999902e+03,6.148673806004723019e-02,5.054801883877012292e-02
3.369086999999999989e+03,6.044340804894687835e-02,5.053907956856046324e-02
3.371014999999999873e+03,5.941116788061862053e-02,5.101297039897302599e-02
3.372943999999999960e+03,5.838894676650596693e-02,4.972605020104685358e-02
3.374871999999999844e+03,5.737780455223528975e-02,4.923168599663765854e-02
3.376800999999999931e+03,5.637669233510322897e-02,4.909081752035013291e-02
3.378728999999999814e+03,5.538664807490079056e-02,4.905685273375180733e-02
3.380657999999999902e+03,5.440664475474932260e-02,5.077140133844790237e-02
3.382585999999999785e+03,5.343769844860446483e-02,5.178188863317054191e-02
3.384514999999999873e+03,5.247880402544069511e-02,5.183693846925253867e-02
3.386443000000000211e+03,5.153095567335697069e-02,5.159998640690180438e-02
3.388371999999999844e+03,5.059317014717734651e-02,5.113635527483822996e-02
3.390300000000000182e+03,4.966641974915475544e-02,5.310291563950390870e-02
3.392228999999999814e+03,4.874974311995927678e-02,5.417654314305499208e-02
3.394157000000000153e+03,4.784409067599781906e-02,5.571513352293072652e-02
3.396085999999999785e+03,4.694852294378293323e-02,5.698549605955277597e-02
3.398014000000000124e+03,4.606396845388616157e-02,5.632474882095464541e-02
3.399943000000000211e+03,4.518950961865542126e-02,5.570230277394541685e-02
3.401871000000000095e+03,4.432605308281623024e-02,5.828299624499132248e-02
3.403800000000000182e+03,4.347270314456963547e-02,6.028135932384239004e-02
3.405728000000000065e+03,4.263034456279513051e-02,6.129279300922550744e-02
3.407657000000000153e+03,4.179810352152912856e-02,5.984863963019432243e-02
3.409585000000000036e+03,4.097684289381575695e-02,5.822162572035588513e-02
3.411514000000000124e+03,4.016571074953745324e-02,5.870520302788093114e-02
3.413442000000000007e+03,3.936554807588166227e-02,6.162406478169440982e-02
3.415371000000000095e+03,3.857552482858395138e-02,6.324665347931053561e-02
3.417298999999999978e+03,3.779646010899284647e-02,6.467088498349680969e-02
3.419228000000000065e+03,3.702754575868283382e-02,6.449327401287281714e-02
3.421155999999999949e+03,3.626957899315286227e-02,6.495059234011309190e-02
3.423085000000000036e+03,3.552177353981988972e-02,6.562600114935428219e-02
3.425012999999999920e+03,3.478490472835105152e-02,6.803278656852554396e-02
3.426942000000000007e+03,3.405820817200932993e-02,6.770142035321052854e-02
3.428869999999999891e+03,3.334243731459807236e-02,6.750490727248371903e-02
3.430798999999999978e+03,3.263684965523694359e-02,6.999026901452956584e-02
3.432726999999999862e+03,3.194217675189037209e-02,7.204106089088735398e-02
3.434655999999999949e+03,3.125769798951338885e-02,7.464324206911393533e-02
3.436583999999999833e+03,3.058412304022439798e-02,7.588575060780958226e-02
3.438512999999999920e+03,2.992075317483156027e-02,7.657074131622272628e-02
3.440440999999999804e+03,2.926827617960725547e-02,7.639491193319979112e-02
3.442369999999999891e+03,2.862601521119856329e-02,7.561706075160343210e-02
3.444297999999999774e+03,2.799463617003539184e-02,7.737303137267158293e-02
3.446226999999999862e+03,2.737348409860729248e-02,7.963278043186881872e-02
3.448155000000000200e+03,2.676320301150525438e-02,7.893952467473755452e-02
3.450083999999999833e+03,2.616315983706485326e-02,7.851377437904756562e-02
3.452012000000000171e+03,2.557397670402394851e-02,7.824587268443254640e-02
3.453940999999999804e+03,2.499504242656414021e-02,7.711448501708288716e-02
3.455869000000000142e+03,2.442695724758081610e-02,7.608439522386364895e-02
3.457797999999999774e+03,2.386913186710515333e-02,7.869139881115221058e-02
3.459726000000000113e+03,2.332214464219006800e-02,7.981063813350992853e-02
3.461655000000000200e+03,2.278542815869855076e-02,7.815168950025223882e-02
3.463583000000000084e+03,2.225953888784104606e-02,7.867105900966224474e-02
3.465512000000000171e+03,2.174393130133012164e-02,7.837181973475601526e-02
3.467440000000000055e+03,2.123913998453730301e-02,7.709970566390099422e-02
3.469369000000000142e+03,2.074464129501407683e-02,7.739901078221225750e-02
3.471297000000000025e+03,2.026094793227883883e-02,7.824405055149757926e-02
3.473226000000000113e+03,1.978755813973620548e-02,7.723953677586069266e-02
3.475153999999999996e+03,1.932496273106565354e-02,7.837577011033737551e-02
3.477083000000000084e+03,1.887268183550361300e-02,7.937299187317931048e-02
3.479010999999999967e+03,1.843118438089419442e-02,8.037809996157017911e-02
3.480940000000000055e+03,1.800001238231985212e-02,7.825805898127058402e-02
3.482867999999999938e+03,1.757961288177156689e-02,7.657348526843565928e-02
3.484797000000000025e+03,1.716954978017781741e-02,7.589900374251500048e-02
3.486724999999999909e+03,1.677024823369066553e-02,7.697089702052950511e-02
3.488653999999999996e+03,1.638129402908461429e-02,7.652851088347983888e-02
3.490581999999999880e+03,1.600309043665859576e-02,7.410963067928197368e-02
3.492510999999999967e+03,1.563524512903313735e-02,6.807574749201204811e-02
3.494438999999999851e+03,1.527813949066825217e-02,6.585654159696947840e-02
3.496367999999999938e+03,1.493140308003049199e-02,6.574986145044561803e-02
3.498295999999999822e+03,1.459539539572318745e-02,6.703123454463869035e-02
3.500224999999999909e+03,1.426976788206957281e-02,7.076130459341815893e-02
3.502152999999999793e+03,1.395485815182695433e-02,7.556022321883917869e-02
3.504081999999999880e+03,1.365033953515393250e-02,6.887995966630165723e-02
3.506010000000000218e+03,1.335652775897244737e-02,6.288896905695801065e-02
3.507938999999999851e+03,1.307311803928357108e-02,6.357891370033030842e-02
3.509867000000000189e+03,1.280040421716321930e-02,6.565258779739253925e-02
3.511795999999999822e+03,1.253810339445848854e-02,6.487594694416479180e-02
3.513724000000000160e+03,1.228648752639927011e-02,6.313145950685657148e-02
3.515652999999999793e+03,1.204529560067513216e-02,6.052794810699696493e-02
3.517581000000000131e+03,1.181477768668059980e-02,6.030747542157777197e-02
3.519510000000000218e+03,1.159469465794060739e-02,5.842070511967994983e-02
3.521438000000000102e+03,1.138527469800365566e-02,6.197663776535428104e-02
3.523367000000000189e+03,1.118630056625136149e-02,6.324220443728650887e-02
3.525295000000000073e+03,1.099797856037199040e-02,6.025770727809967586e-02
3.527224000000000160e+03,1.082011332560384176e-02,6.195134629230782120e-02
3.529152000000000044e+03,1.065288927378915673e-02,6.031978332299645085e-02
3.531081000000000131e+03,1.049613293600515362e-02,5.727676204024068074e-02
3.533009000000000015e+03,1.035000683824804923e-02,5.630833744558902398e-02
3.534938000000000102e+03,1.021435939744463894e-02,5.490232917022946912e-02
3.536865999999999985e+03,1.008933125375577333e-02,5.348332618079391920e-02
3.538795000000000073e+03,9.974792709936508572e-03,5.304931019110463442e-02
3.540722999999999956e+03,9.870862520305223597e-03,5.130019782539376599e-02
3.542652000000000044e+03,9.777432873470104369e-03,5.166684085542912197e-02
3.544579999999999927e+03,9.694600637903505458e-03,5.554659515710307083e-02
3.546509000000000015e+03,9.622279888048979046e-03,5.371289144521697312e-02
3.548436999999999898e+03,9.560545606539960772e-03,5.035556679616903092e-02
3.550365999999999985e+03,9.509333753673132605e-03,5.363521794955136701e-02
3.552293999999999869e+03,9.468697426228800396e-03,5.569289157609608187e-02
3.554222999999999956e+03,9.438594470339012332e-03,5.108783330687720337e-02
3.556150999999999840e+03,9.419056096955813473e-03,4.883584130524777633e-02
3.558079999999999927e+03,9.410062038053723654e-03,5.109486568862170452e-02
3.560007999999999811e+03,9.411621618735210859e-03,5.684713709955045713e-02
3.561936999999999898e+03,9.423736456813713858e-03,5.868396090495724138e-02
3.563864999999999782e+03,9.446393991552781699e-03,6.847068879425537158e-02
3.565793999999999869e+03,9.479617726618982942e-03,7.619552126054367214e-02
3.567722000000000207e+03,9.523373215415631421e-03,5.884572109369182180e-02
3.569650999999999840e+03,9.577705847465978195e-03,4.597384575467696605e-02
3.571579000000000178e+03,9.642559290327312738e-03,4.781235832819084181e-02
3.573507999999999811e+03,9.718000819361805043e-03,4.762153218377173508e-02
3.575436000000000149e+03,9.803952216280720222e-03,4.448849193615030118e-02
3.577364999999999782e+03,9.900502642295805344e-03,4.110753334274413334e-02
3.579293000000000120e+03,1.000755199328295930e-02,4.140268757004465089e-02
3.581222000000000207e+03,1.012521131627863724e-02,4.115099408147736282e-02
3.583150000000000091e+03,1.025335862132692455e-02,4.640612788428311042e-02
3.585079000000000178e+03,1.039212684131030073e-02,5.711599000898789913e-02
3.587007000000000062e+03,1.054137210041972139e-02,6.532758069448577065e-02
3.588936000000000149e+03,1.070124921738369039e-02,4.991397872156304316e-02
3.590864000000000033e+03,1.087159243055069169e-02,5.162889276099891234e-02
3.592793000000000120e+03,1.105257844450235893e-02,6.478150120777703691e-02
3.594721000000000004e+03,1.124401961173404629e-02,7.320921499859650572e-02
3.596650000000000091e+03,1.144611452266275364e-02,7.990548762026659924e-02
3.598577999999999975e+03,1.165865364395557435e-02,8.425161624384389092e-02
3.600507000000000062e+03,1.188185745187553266e-02,7.334191693405392454e-02
3.602434999999999945e+03,1.211549452722593401e-02,5.648454085132456615e-02
3.604364000000000033e+03,1.235980723212648513e-02,4.805714920171563764e-02
3.606291999999999916e+03,1.261454226154157254e-02,4.762385862797627323e-02
3.608221000000000004e+03,1.287996386342626920e-02,3.877368012727423069e-02
3.610148999999999887e+03,1.315579684689893725e-02,3.158032970723025773e-02
3.612077999999999975e+03,1.344232734576777943e-02,3.886117007665212952e-02
3.614005999999999858e+03,1.373925828330513355e-02,3.947554005895707874e-02
3.615934999999999945e+03,1.404689767915812126e-02,3.805352686344777580e-02
3.617862999999999829e+03,1.436492657075305601e-02,4.366666647483474772e-02
3.619791999999999916e+03,1.469367486359018926e-02,3.317289746027517194e-02
3.621719999999999800e+03,1.503280170924981007e-02,2.491413046501482487e-02
3.623648999999999887e+03,1.538265889906753614e-02,2.947714095941826595e-02
3.625577000000000226e+03,1.574288369878829030e-02,4.011671399655185322e-02
3.627505999999999858e+03,1.611384978559016190e-02,4.950700334288452020e-02
3.629434000000000196e+03,1.649517253937204941e-02,3.016478904963029034e-02
3.631362999999999829e+03,1.688724752315806654e-02,2.037617105563503672e-02
3.633291000000000167e+03,1.728966823100108741e-02,2.607073811692169063e-02
3.635219999999999800e+03,1.770285211177125007e-02,2.042521824100344829e-02
3.637148000000000138e+03,1.812637077367540428e-02,1.815620276316882997e-02
3.639077000000000226e+03,1.856066355142971247e-02,1.479600277829840049e-02
3.641005000000000109e+03,1.900528016739500003e-02,2.025657164701924473e-02
3.642934000000000196e+03,1.946068184213345376e-02,2.351773724206750876e-02
3.644862000000000080e+03,1.992639641215987467e-02,3.033085619069062627e-02
3.646791000000000167e+03,2.040290698387892121e-02,4.262891349524774998e-02
3.648719000000000051e+03,2.088971950797002819e-02,3.961061406122031586e-02
3.650648000000000138e+03,2.138733897667322026e-02,1.609679121639258359e-02
3.652576000000000022e+03,2.189524945482190788e-02,6.229181961330931827e-03
3.654505000000000109e+03,2.241397782050924548e-02,1.622217905809178462e-02
3.656432999999999993e+03,2.294298625272261916e-02,1.475816607720764617e-02
3.658362000000000080e+03,2.348282351539054957e-02,6.328406647350792724e-03
3.660289999999999964e+03,2.403292990166505660e-02,7.979604213365770748e-03
3.662219000000000051e+03,2.459387606132068527e-02,6.380247056035029396e-03
3.664146999999999935e+03,2.516508040165632565e-02,6.043046556799144819e-03
3.666076000000000022e+03,2.574713545829254713e-02,1.279248851825652566e-02
3.668003999999999905e+03,2.633943775268932086e-02,2.523116772593193141e-02
3.669932999999999993e+03,2.694260170630968787e-02,1.910081282922049262e-02
3.671860999999999876e+03,2.755600195476759495e-02,1.049797560512323591e-02
3.673789999999999964e+03,2.818027480537210749e-02,2.558213295769269646e-02
3.675717999999999847e+03,2.881477300789114793e-02,1.235752053299636610e-02
3.677646999999999935e+03,2.946015475547980600e-02,4.645424947340381916e-03
3.679574999999999818e+03,3.011575091205997978e-02,9.530413042251148492e-03
3.681503999999999905e+03,3.078224155663278339e-02,1.549002757528755714e-03
3.683431999999999789e+03,3.145893566727409052e-02,1.978444298358181253e-03
3.685360999999999876e+03,3.214653520883103965e-02,8.259004061360014637e-03
3.687289000000000215e+03,3.284432727353348014e-02,1.963252504628862360e-02
3.689217999999999847e+03,3.355303571207102209e-02,1.731970258773692095e-02
3.691146000000000186e+03,3.427192573083814864e-02,1.355856047152717569e-02
3.693074999999999818e+03,3.500174306635983612e-02,3.793314044728823831e-03
3.695003000000000156e+03,3.574173103918454331e-02,2.703988156206149629e-03
3.696931999999999789e+03,3.649265727169037632e-02,-8.529625380403194068e-04
3.698860000000000127e+03,3.725374319857621686e-02,-1.461819616245266240e-03
