baseline wavenumber (cm-1),baseline absorbance (cm-1),baseline-subtracted absorbance (cm-1)
3199.379,0.209948448398,1.487698853e-14
3201.308,0.208012587556,-7.81894963455e-05
3203.236,0.206087575982,0.00141773080068
3205.165,0.204171416777,0.00123088788305
3207.093,0.202266096627,0.00138244274437
3209.021,0.200370619636,0.000697812588584
3210.95,0.198484010333,0.00225843381953
3212.878,0.196608224766,0.00340845369351
3214.807,0.1947413171,0.0043823056637
3216.736,0.192884262806,0.00315738280166
3218.664,0.191038016928,0.00395541276995
3220.593,0.189200664271,0.00412491947461
3222.521,0.187374109817,0.00531668165197
3224.449,0.185557398521,0.00546403077222
3226.378,0.183749595767,0.00683970980296
3228.306,0.181952575895,0.00666159574161
3230.235,0.180164474778,0.00780075316144
3232.164,0.178386227033,0.00743506074652
3234.092,0.176618746849,0.00876283608808
3236.021,0.174860200742,0.00991691439016
3237.949,0.173112411982,0.0108828371839
3239.877,0.171374466382,0.0100194485075
3241.806,0.169645470176,0.0110752414383
3243.734,0.167927215999,0.0115572679792
3245.663,0.166217921431,0.0126090269166
3247.592,0.164518480235,0.013317363291
3249.52,0.162829765746,0.0141393032922
3251.448,0.161150894418,0.0124991611774
3253.377,0.159481003123,0.0128458946833
3255.305,0.157821823218,0.0138465281415
3257.234,0.156171633561,0.0152339057093
3259.162,0.15453214508,0.0153409975466
3261.091,0.15290165706,0.0167693224209
3263.02,0.151281022412,0.0175984883529
3264.948,0.149671073619,0.0197623641651
3266.876,0.148070967985,0.0191472671303
3268.805,0.14647988324,0.0196426276264
3270.733,0.14489946903,0.0201182202454
3272.662,0.143328085921,0.0200450061639
3274.591,0.141766556186,0.018922820141
3276.519,0.140215681664,0.0200552169511
3278.448,0.138673853565,0.0200363455652
3280.376,0.137142670468,0.0212637785368
3282.304,0.135621330529,0.0214291091759
3284.233,0.134109052332,0.0230005200928
3286.161,0.132607403817,0.0235590775332
3288.09,0.131114827258,0.0241176603599
3290.019,0.129632104071,0.0229505301152
3291.947,0.128159995244,0.0238308063328
3293.875,0.126697729577,0.0239719358432
3295.804,0.125244556292,0.0252219351671
3297.732,0.123801982048,0.0255622148589
3299.661,0.1223685104,0.0268289019118
3301.589,0.12094562758,0.0279212479883
3303.518,0.119531857569,0.0299101721486
3305.447,0.118127940931,0.0292914465146
3307.375,0.1167345978,0.0292807665993
3309.303,0.115351097828,0.0287902142112
3311.232,0.113976731091,0.0299472555661
3313.16,0.112612922543,0.0300955582012
3315.089,0.111258257443,0.0314062528164
3317.017,0.109914140319,0.0305088860634
3318.946,0.108579176857,0.0307142629492
3320.875,0.107254066767,0.0312211177067
3322.803,0.105939489331,0.0327171365661
3324.731,0.104634755054,0.0317829140049
3326.66,0.103339194866,0.0326241125228
3328.588,0.102054152013,0.0320649220797
3330.517,0.100778293462,0.0323769678334
3332.445,0.0995129420331,0.0323843590889
3334.374,0.0982567851197,0.0332953224311
3336.302,0.0970111251141,0.0332350085157
3338.231,0.0957746698379,0.0341191945107
3340.159,0.0945487012561,0.0333503182527
3342.088,0.093331947617,0.0339494634817
3344.016,0.092125670459,0.0346594301172
3345.945,0.0909286184572,0.0362764760541
3347.873,0.0897420327229,0.0354394087003
3349.802,0.0885646823583,0.0362685330466
3351.73,0.0873977880478,0.036401362867
3353.659,0.0862401393203,0.0363207623273
3355.587,0.0850929364337,0.0359396118328
3357.516,0.0839549893434,0.0383011513621
3359.444,0.0828274778805,0.0385800830211
3361.373,0.0817092324274,0.038024923036
3363.302,0.0806008403469,0.0368493769785
3365.23,0.0795028685724,0.0379205621361
3367.158,0.0784147399572,0.0379230746592
3369.087,0.0773358977784,0.0390327467177
3371.015,0.0762674605869,0.0383256860824
3372.944,0.0752083200454,0.0391599201244
3374.872,0.0741595742777,0.0386060175549
3376.801,0.0731201353733,0.0386139190086
3378.729,0.0720910810294,0.0380165708457
3380.658,0.0710713437622,0.038522308315
3382.586,0.0700619808421,0.0389054708914
3384.515,0.0690619452121,0.0394738882055
3386.443,0.0680722737158,0.0382235920479
3388.372,0.067091939723,0.0390381522613
3390.3,0.0661219596504,0.0395628680055
3392.229,0.0651613272948,0.0400499331924
3394.157,0.0642110386461,0.0391099964293
3396.086,0.0632701079276,0.0401494816812
3398.014,0.0623395107026,0.0396846477933
3399.943,0.0614182816214,0.0417379904902
3401.871,0.0605073758202,0.0419630578197
3403.8,0.0596058483761,0.0420786760351
3405.728,0.0587146339988,0.0417088977914
3407.657,0.0578328081919,0.0417926845808
3409.585,0.0569612852383,0.0409185287716
3411.514,0.0560991610686,0.0411771959515
3413.442,0.0552473295388,0.0392730383981
3415.371,0.0544049070063,0.0392815379548
3417.299,0.0535727669003,0.0391999006424
3419.228,0.0527500460049,0.0388435049907
3421.156,0.0519375973227,0.0367377286653
3423.085,0.0511345780646,0.0379203092295
3425.013,0.0503418208062,0.0371579264899
3426.942,0.0495585031852,0.0367601059324
3428.87,0.0487854373506,0.0356338490135
3430.799,0.0480218213668,0.0355514122327
3432.727,0.0472684469559,0.0350715914551
3434.656,0.0465245326093,0.0345044778021
3436.584,0.0457908496223,0.0330037526217
3438.513,0.0450666369129,0.0336642839403
3440.441,0.0443526453496,0.0327599595225
3442.37,0.0436481342774,0.0324718495496
3444.298,0.0429538341379,0.0313269704714
3446.227,0.0422690247029,0.0306203920565
3448.155,0.0415944159872,0.0312859034306
3450.084,0.0409293081893,0.0342607251676
3452.012,0.0402743908974,0.0333256293189
3453.941,0.0396289847368,0.0336167445668
3455.869,0.0389937588687,0.034035655869
3457.798,0.0383680543452,0.035437161464
3459.726,0.0377525199009,0.0336924411827
3461.655,0.0371465170146,0.0340548374785
3463.583,0.0365506739941,0.0341023129664
3465.512,0.0359643727449,0.0357140867719
3467.44,0.0353882211482,0.0365105961974
3469.369,0.0348216215363,0.0365818961025
3471.297,0.0342651613633,0.0354467561541
3473.226,0.0337182633886,0.0364303265235
3475.154,0.0331814946394,0.0361220533238
3477.083,0.0326542983019,0.0386253944101
3479.011,0.0321372209765,0.0398859267036
3480.94,0.0316297262761,0.0401194903417
3482.868,0.0311323403746,0.040517310894
3484.797,0.0306445473114,0.0432561905841
3486.725,0.0301668528336,0.0424334706274
3488.654,0.0296987614076,0.0423911001106
3490.582,0.0292407583536,0.0426509832819
3492.511,0.0287923685648,0.0449228846445
3494.439,0.0283540569346,0.0441739932019
3496.368,0.027925368783,0.0440022568109
3498.296,0.0275067485766,0.0442631897637
3500.225,0.0270977620621,0.0445321782998
3502.153,0.0266988332795,0.0425182899389
3504.082,0.0263095484022,0.044642134606
3506.01,0.0259303110434,0.0479618349184
3507.939,0.0255607278033,0.0507300838817
3509.867,0.0252011818683,0.052353654885
3511.796,0.0248513002654,0.0558603140073
3513.724,0.0245114457541,0.055056430522
3515.653,0.0241812657884,0.0534225955277
3517.581,0.023861102701,0.0520511584938
3519.51,0.0235506243724,0.0540052231966
3521.438,0.0232501527088,0.0537163892906
3523.367,0.0229593760174,0.052816425054
3525.295,0.0226785957776,0.0528470284011
3527.224,0.0224075207234,0.0539666832592
3529.152,0.0221464319073,0.0552229201598
3531.081,0.0218950584903,0.056187929481
3533.009,0.0216536610981,0.0563984969935
3534.938,0.0214219893183,0.0570122571186
3536.866,0.0212002833498,0.0548449001133
3538.795,0.0209883132072,0.0558402524453
3540.723,0.0207862986625,0.0565274585396
3542.652,0.020594030157,0.0557296330392
3544.58,0.0204117070361,0.0507573013537
3546.509,0.0202391401679,0.0504350739229
3548.437,0.0200765084708,0.0536872638935
3550.366,0.0199236432397,0.0547559281744
3552.294,0.0197807029664,0.0535933999347
3554.223,0.0196475393725,0.0596004137257
3556.151,0.019524290523,0.0638624475747
3558.08,0.0194108285663,0.0687959843318
3560.008,0.0193072711405,0.073946039281
3561.937,0.019213510821,0.0806035315322
3563.865,0.019129644819,0.0816127993334
3565.794,0.0190555861367,0.0734330421863
3567.722,0.0189914115586,0.0662077191399
3569.651,0.0189370545134,0.073352948519
3571.579,0.018892571359,0.07521083509
3573.508,0.0188579159511,0.0731293477707
3575.436,0.0188331242205,0.0670478016867
3577.365,0.0188181704497,0.0609902799697
3579.293,0.0188130701429,0.0570713936193
3581.222,0.0188178180094,0.0564055722666
3583.15,0.0188324091264,0.0558926489955
3585.079,0.01885685863,0.0542503889188
3587.007,0.0188911411707,0.0499570343069
3588.936,0.0189352923115,0.0624434603419
3590.864,0.0189892662761,0.0763023540615
3592.793,0.0190531190541,0.0867216712017
3594.721,0.0191267844425,0.102930730972
3596.65,0.0192103388576,0.125085627988
3598.578,0.0193036956698,0.130678615055
3600.507,0.0194069517221,0.113518854403
3602.435,0.0195199999581,0.0851691742055
3604.364,0.0196429576476,0.0659155180423
3606.292,0.0197756973073,0.0491947868734
3608.221,0.019918356634,0.0370026986576
3610.149,0.0200707877176,0.0362705647539
3612.078,0.0202331486815,0.0329984292019
3614.006,0.0204052711888,0.0281270243737
3615.935,0.0205873337899,0.0291271107669
3617.863,0.020779147721,0.0234344376424
3619.792,0.0209809119592,0.022954193671
3621.72,0.0211924173141,0.0287337931377
3623.649,0.0214138831896,0.0314093251395
3625.577,0.0216450799683,0.0275199862402
3627.506,0.0218862474809,0.0152627467574
3629.434,0.0221371356834,0.00802611105673
3631.363,0.0223980048332,0.0264026623052
3633.291,0.0226685844595,0.0285459106381
3635.22,0.0229491552465,0.0299832211813
3637.148,0.0232394262966,0.0296070307943
3639.077,0.0235396987207,0.0294017750486
3641.005,0.0238496611946,0.0286288589712
3642.934,0.024169635256,0.0283073686862
3644.862,0.0244992891536,0.0244373327002
3646.791,0.0248389648522,0.00959598915572
3648.719,0.0251883101736,-0.00754098378121
3650.648,0.0255476875093,-0.000159534269681
3652.576,0.0259167242546,0.0192141763822
3654.505,0.0262958032275,0.0211048841272
3656.433,0.0266845313965,0.0158773810668
3658.362,0.0270833120066,0.0224138071686
3660.29,0.0274917315994,0.0248548771138
3662.219,0.0279102138467,0.0253264181153
3664.147,0.0283383248633,0.0233274994569
3666.076,0.0287765087478,0.0205336095176
3668.004,0.0292243111882,0.0111274526852
3669.933,0.0296821967099,-0.000279588805285
3671.861,0.030149690574,0.00649793906307
3673.79,0.0306272777329,0.00159954931654
3675.718,0.0311144630209,-0.0143066190908
3677.647,0.0316117518169,0.00503385618876
3679.575,0.0321186285287,0.01170326574
3681.504,0.0326356189619,0.0159886608319
3683.432,0.0331621870974,0.0151861400025
3685.361,0.0336988791678,0.0129335882334
3687.289,0.0342451387272,0.00197946452765
3689.218,0.0348015324348,-0.00905100175651
3691.146,0.0353674834179,-0.00770448938171
3693.075,0.0359435787627,0.00259528710208
3695.003,0.0365292211696,0.00706978823099
3696.932,0.0371250181516,0.00713203228815
3698.86,0.0377303519823,0.00652669845744
