449.3401,-2.38594317378
451.2686,-1.82128565652
453.1971,-2.70867499518
455.1256,-1.77754435184
457.0541,-1.32738643485
458.9826,-1.28535083576
460.9111,-2.01833324757
462.8396,-2.39361067054
464.7681,-1.85919570311
466.6966,-1.1568802459
468.6251,-1.36418049493
470.5536,-1.23057799362
472.4821,-1.86312465196
474.4106,-1.7948663334
476.3391,-1.46449343429
478.2676,-0.854195197706
480.1961,-0.934788684377
482.1246,-1.07950997491
484.0531,-2.54450372623
485.9816,-2.08765131452
487.9101,-0.860079156061
489.8386,-0.652294128998
491.7671,-1.19202938717
493.6956,-0.516813164496
495.6241,-0.578284728412
497.5526,-1.45348996995
499.4811,-2.73321328212
501.4096,-1.41508990746
503.3381,-0.757734155463
505.2666,-0.065961184676
507.1951,-0.449450015162
509.1236,-0.481619777069
511.0521,-0.793884463762
512.9806,-0.283912123356
514.9091,-0.0646753213935
516.8376,-0.0239428705329
518.7661,0.079995874034
520.6946,0.512356767411
522.6231,0.495639249056
524.5516,0.79210067449
526.4801,0.631719531717
528.4086,0.523723059464
530.3371,0.990464465233
532.2656,1.61889497211
534.1941,1.63171776646
536.1226,1.65179122061
538.0511,1.66885909688
539.9796,1.76238331051
541.9081,1.91954196264
543.8365,2.08631179071
545.7651,2.20750962848
547.6935,2.42480381905
549.6221,2.49175361137
551.5506,2.58873008923
553.4791,2.66785658317
555.4076,2.88921239076
557.3361,3.23098390046
559.2646,3.39496100089
561.1931,3.67569944773
563.1216,3.96508404473
565.05,4.10173741764
566.9786,4.30622888544
568.907,4.52162484953
570.8356,4.7401588451
572.764,5.05525027797
574.6926,5.30268101412
576.621,5.48024917527
578.5496,5.744156024
580.478,6.00045901142
582.4066,6.30530826204
584.335,6.55494436838
586.2635,6.79058242283
588.192,6.91856929142
590.1205,7.03461902355
592.049,7.24809374856
593.9775,7.44845879088
595.906,7.53662200086
597.8345,7.58611535245
599.7631,7.69403298016
601.6915,7.82302455363
603.6201,7.87571608024
605.5485,7.97541605175
607.4771,8.07319914908
609.4055,8.08208743556
611.334,8.16291777474
613.2625,8.31417072678
615.191,8.38023764278
617.1195,8.37792379368
619.048,8.53536661368
620.9765,8.6676704465
622.905,8.70758066769
624.8335,8.69807072953
626.762,8.78613207686
628.6905,8.88239619382
630.619,8.93725132555
632.5475,8.99707875173
634.476,9.07168981741
636.4045,9.08483455703
638.333,9.12699062698
640.2615,9.17837636345
642.19,9.20317351111
644.1185,9.21134595628
646.047,9.29576652913
647.9755,9.31184493168
649.904,9.32481507586
651.8325,9.29272902787
653.761,9.35616644459
655.6895,9.4195932937
657.618,9.4825308161
659.5465,9.5258461079
661.475,9.60151853009
663.4035,9.70947364987
665.332,9.64414279151
667.2605,8.97109205775
669.189,8.96927029213
671.1175,9.6753962949
673.046,9.84535301361
674.9745,9.83830533067
676.903,9.90627258024
678.8315,9.96568281521
680.7599,9.96160279536
682.6885,10.0025514
684.6169,10.0709680031
686.5455,10.0788032034
688.4739,10.0570173677
690.4025,10.1146517832
692.3309,10.2068331235
694.2595,10.2659208164
696.188,10.2805574281
698.1165,10.3165567114
700.045,10.3752685645
701.9734,10.4328616285
703.902,10.4478662691
705.8304,10.41765896
707.759,10.4138615091
709.6874,10.4677219062
711.616,10.5537450815
713.5444,10.5770894112
715.473,10.5705632173
717.4014,10.5332411439
719.33,10.4668709832
721.2584,10.5206505151
723.187,10.6140480505
725.1154,10.6222595499
727.0439,10.649348033
728.9724,10.6803286162
730.9009,10.6472395633
732.8294,10.6423017285
734.7579,10.7411493986
736.6864,10.749109113
738.6149,10.681236972
740.5434,10.6443049815
742.4719,10.6907753967
744.4004,10.7259154866
746.3289,10.7187970466
748.2574,10.7136791028
750.1859,10.7405718552
752.1144,10.768996453
754.0429,10.7831129541
755.9714,10.7962163421
757.8999,10.8091299725
759.8284,10.822768174
761.7569,10.8337047407
763.6854,10.8074129642
765.6139,10.7971926982
767.5424,10.8921271331
769.4709,10.9299357764
771.3994,10.8820171379
773.3279,10.906671393
775.2564,10.8975892137
777.1849,10.8573757478
779.1134,10.874441993
781.0419,10.88427723
782.9704,10.8618724994
784.8989,10.8865630519
786.8274,10.9021571818
788.7559,10.8552617645
790.6844,10.8120176893
792.6129,10.8214334378
794.5414,10.8682746386
796.4699,10.8883802229
798.3984,10.8889623609
800.3269,10.9042201649
802.2554,10.9093551088
804.1839,10.9393009842
806.1124,11.0123457449
808.0409,11.0035507292
809.9694,10.9781608759
811.8979,11.0226013894
813.8264,11.0476834033
815.7549,11.0804186707
817.6833,11.0925305404
819.6119,11.1266014629
821.5403,11.1779407938
823.4689,11.2090017827
825.3973,11.1953599055
827.3259,11.2276573059
829.2543,11.24704613
831.1829,11.2660476278
833.1113,11.3248086434
835.0399,11.3526736168
836.9683,11.3251831047
838.8969,11.3374167318
840.8253,11.3752722402
842.7538,11.3324324913
844.6824,11.2461129633
846.6108,11.2403926652
848.5394,11.2381863301
850.4678,11.2785183371
852.3964,11.3107619805
854.3248,11.3554110896
856.2534,11.3648989736
858.1818,11.3078719664
860.1104,11.2749092655
862.0388,11.2882736278
863.9673,11.3076587762
865.8958,11.3443325492
867.8243,11.3991398969
869.7528,11.3871773522
871.6813,11.364282376
873.6098,11.3745416961
875.5383,11.3837405787
877.4668,11.3902520699
879.3953,11.416087601
881.3238,11.4492441947
883.2523,11.439818338
885.1808,11.4870684598
887.1093,11.4718736021
889.0378,11.4642318352
890.9663,11.5064811759
892.8948,11.5360948605
894.8233,11.5623553936
896.7518,11.5734224475
898.6803,11.5230185806
900.6088,11.4975938083
902.5373,11.5452680132
904.4658,11.5958019077
906.3943,11.5952923647
908.3228,11.6025022376
910.2513,11.6167092526
912.1798,11.6895670125
914.1083,11.7059206326
916.0368,11.6361578067
917.9653,11.6112071988
919.8938,11.6928925962
921.8223,11.7342000404
923.7508,11.7125240161
925.6793,11.6806038337
927.6078,11.72171325
929.5363,11.7806663205
931.4648,11.7617608502
933.3932,11.7155587606
935.3218,11.6820079487
937.2502,11.6797202889
939.1788,11.7312971614
941.1072,11.796085855
943.0358,11.8368520533
944.9643,11.8462282881
946.8928,11.8797391268
948.8213,11.8935238966
950.7498,11.9205172712
952.6783,11.9024558319
954.6068,11.9044655174
956.5353,11.8743055328
958.4637,11.8720789815
960.3923,11.857919291
962.3207,11.8459300975
964.2493,11.8753021053
966.1777,11.941894186
968.1063,11.9390432262
970.0347,11.931236972
971.9633,11.9304751845
973.8917,11.9280588754
975.8203,11.9534386205
977.7487,11.9609600085
979.6772,11.956581798
981.6057,11.9472156713
983.5342,11.9698763221
985.4627,12.0479439181
987.3912,12.0583966717
989.3197,12.0352990728
991.2482,12.0240886669
993.1768,12.0360420224
995.1052,12.137125433
997.0338,12.1948103893
998.9622,12.1393069572
1000.891,12.0495805207
1002.819,11.9938753848
1004.748,11.9835485237
1006.676,11.970405622
1008.605,12.0192914274
1010.533,12.0221855766
1012.462,12.0220780625
1014.39,12.0520276136
1016.319,12.0653924354
1018.247,12.0711720041
1020.176,12.0807926725
1022.104,12.0566998796
1024.033,12.0659952492
1025.961,12.0469606701
1027.89,12.0721713333
1029.818,12.1646494859
1031.747,12.2426771087
1033.675,12.2312691343
1035.604,12.1628396662
1037.532,12.1845147717
1039.461,12.1873758397
1041.389,12.2376409491
1043.318,12.2676920412
1045.246,12.1952923647
1047.175,12.1756632421
1049.103,12.1723119285
1051.032,12.2203045404
1052.96,12.2568896373
1054.889,12.2438602226
1056.817,12.1989262472
1058.746,12.253366485
1060.674,12.3427547577
1062.603,12.3552020345
1064.531,12.3538020547
1066.46,12.3337212813
1068.388,12.3571478548
1070.317,12.3580217509
1072.245,12.3115949845
1074.174,12.3491109508
1076.102,12.4407253154
1078.031,12.4825142755
1079.959,12.4660558981
1081.888,12.4644523768
1083.816,12.4327913309
1085.745,12.3643467006
1087.673,12.3637029948
1089.602,12.4099211656
1091.53,12.4768008693
1093.459,12.5238874227
1095.387,12.4692845354
1097.316,12.43760603
1099.244,12.4602037345
1101.173,12.5141234022
1103.101,12.5634558044
1105.03,12.5767733016
1106.958,12.5544053279
1108.887,12.5805289415
1110.815,12.595306608
1112.744,12.6247558053
1114.672,12.6227410658
1116.601,12.6312934858
1118.529,12.6761907042
1120.458,12.7045192744
1122.386,12.7409035866
1124.315,12.779448747
1126.243,12.7862179962
1128.172,12.7692748867
1130.1,12.7534528638
1132.029,12.7577731821
1133.957,12.759657894
1135.886,12.7962939912
1137.814,12.8475814028
1139.743,12.8533508633
1141.671,12.8052677375
1143.6,12.8408291538
1145.528,12.8581844004
1147.457,12.8540887588
1149.385,12.9264535163
1151.314,12.9148429192
1153.242,12.8614144161
1155.171,12.8237592329
1157.099,12.7854791818
1159.028,12.8313362157
1160.956,12.9267163283
1162.885,12.9706008932
1164.813,13.0072369903
1166.742,13.0003073891
1168.67,12.9394539849
1170.599,12.9201570532
1172.527,12.9077722632
1174.456,12.9452395266
1176.384,12.9661179254
1178.313,13.0014335297
1180.241,13.0158321403
1182.17,13.0173864992
1184.098,13.0185654779
1186.027,13.0356441285
1187.955,13.0121803387
1189.884,12.9675509865
1191.812,12.9669408213
1193.741,12.9994950608
1195.669,12.9908410998
1197.598,12.9787673654
1199.526,12.9699723496
1201.455,13.0761332715
1203.383,13.0887032245
1205.312,13.0897292025
1207.24,13.0573334773
1209.169,13.0269699512
1211.097,13.0474720509
1213.026,13.0938165737
1214.954,13.0900885015
1216.883,13.0856914531
1218.811,13.0968329397
1220.74,13.103421161
1222.668,13.121658574
1224.597,13.134481231
1226.525,13.1190102368
1228.453,13.108062643
1230.382,13.1201028367
1232.311,13.1651544343
1234.239,13.1334763883
1236.167,13.1132348033
1238.096,13.1438625199
1240.025,13.1353110188
1241.953,13.1227746065
1243.882,13.1502614429
1245.81,13.1166858201
1247.739,13.1225917407
1249.667,13.2123526369
1251.596,13.2298705329
1253.524,13.1816344063
1255.453,13.1243625061
1257.381,13.1117011202
1259.31,13.0702755943
1261.238,13.031308648
1263.167,13.0665470627
1265.095,13.1026979683
1267.024,13.1022564256
1268.952,13.0831667111
1270.88,13.0875210296
1272.809,13.1460932064
1274.738,13.2015006111
1276.666,13.2074373156
1278.594,13.2472735635
1280.523,13.2958193672
1282.452,13.263328074
1284.38,13.2165741709
1286.308,13.2010388521
1288.237,13.2333334957
1290.166,13.292211674
1292.094,13.3380521673
1294.022,13.3559068487
1295.951,13.345035985
1297.88,13.3732138519
1299.808,13.3599717063
1301.736,13.3402465563
1303.665,13.3415789952
1305.594,13.3703440541
1307.522,13.3784999586
1309.45,13.3583952933
1311.379,13.2942636299
1313.307,13.2699213493
1315.236,13.2883783851
1317.164,13.3183853689
1319.093,13.2940371153
1321.021,13.2914848056
1322.95,13.3563580401
1324.878,13.3944510903
1326.807,13.3769157347
1328.735,13.4109678193
1330.664,13.4202489455
1332.592,13.3990254909
1334.521,13.3747659135
1336.449,13.2983578931
1338.378,13.184768854
1340.307,13.1773830073
1342.235,13.3328993044
1344.163,13.4507930401
1346.092,13.5116689578
1348.021,13.4529961589
1349.949,13.3735249074
1351.877,13.4573261259
1353.806,13.5127744227
1355.734,13.4880126536
1357.663,13.4775943596
1359.591,13.405723983
1361.52,13.1933038145
1363.448,13.197969648
1365.377,13.3895536881
1367.305,13.3737307463
1369.234,13.3539192174
1371.162,13.4077975336
1373.091,13.2707001369
1375.019,13.2322358417
1376.948,13.4255235658
1378.876,13.4810518089
1380.805,13.446817318
1382.733,13.4800400742
1384.662,13.4626402599
1386.59,13.3480642971
1388.519,13.3551891696
1390.447,13.4499926578
1392.376,13.439878987
1394.304,13.2563222021
1396.233,13.2230723376
1398.161,13.2917926449
1400.09,13.3750719149
1402.018,13.4688599928
1403.947,13.3385350615
1405.875,13.3747512107
1407.804,13.5214876543
1409.732,13.5157342749
1411.661,13.5081554543
1413.589,13.5279031179
1415.518,13.428075416
1417.446,13.1848469625
1419.375,13.0725476324
1421.303,13.3280790917
1423.232,13.4160540603
1425.16,13.4018543966
1427.089,13.3774868456
1429.017,13.3122929068
1430.946,13.378915312
1432.874,13.4146260533
1434.803,13.2703054593
1436.731,13.0468118045
1438.66,13.2641367266
1440.588,13.4204120544
1442.517,13.4601904101
1444.445,13.4284480395
1446.374,13.3179052314
1448.302,13.3109011974
1450.231,13.4186045321
1452.159,13.4154154085
1454.088,13.3327885741
1456.016,12.8570619354
1457.945,12.6488293008
1459.873,13.2335586319
1461.802,13.4685167749
1463.73,13.3045753287
1465.659,13.329701451
1467.587,13.5477780524
1469.516,13.5296674508
1471.444,13.2262665154
1473.373,13.1075273701
1475.301,13.2654167869
1477.23,13.3851860452
1479.158,13.4974348345
1481.087,13.4318976779
1483.015,13.4502269833
1484.944,13.4594851364
1486.872,13.2812980804
1488.801,12.9852563429
1490.729,12.9122354741
1492.658,13.1892389568
1494.586,13.235248532
1496.515,12.937839896
1498.443,12.9356689395
1500.372,13.0924969997
1502.3,13.129509396
1504.229,12.8959553679
1506.157,12.1581504002
1508.086,12.1363121858
1510.014,12.6723836046
1511.943,12.8877627064
1513.871,12.9872232984
1515.8,12.8282592007
1517.728,12.698413488
1519.657,12.6815075949
1521.585,12.4503914706
1523.514,12.6560350385
1525.442,12.8165158193
1527.371,12.92727825
1529.299,13.0576881817
1531.228,13.0218795751
1533.156,12.8170437408
1535.085,12.9134401827
1537.013,12.9081274271
1538.942,12.4602097075
1540.87,12.2450065795
1542.799,12.6302845079
1544.727,12.8398505004
1546.656,13.1095600287
1548.584,13.1672192551
1550.513,13.178027632
1552.441,13.2790513127
1554.37,13.1795199636
1556.298,12.9676313923
1558.227,12.3054956305
1560.155,12.561643228
1562.084,13.2961947474
1564.012,13.4362859965
1565.941,13.4720757652
1567.869,13.4154103544
1569.798,13.2305638606
1571.726,13.4267517069
1573.655,13.4446082262
1575.583,13.2273995479
1577.512,13.4041558402
1579.44,13.7113831727
1581.369,13.8113064426
1583.297,13.888841063
1585.226,13.8929412992
1587.154,13.9117406339
1589.083,13.9042334892
1591.011,13.8617498231
1592.94,13.8380305726
1594.868,13.887863788
1596.797,13.8731412569
1598.725,13.8577800741
1600.654,13.8253214026
1602.582,13.7165668195
1604.511,13.7103163026
1606.439,13.6746845887
1608.368,13.6051124395
1610.296,13.6201510802
1612.225,13.6318388668
1614.153,13.5182631521
1616.082,13.2164441432
1618.01,13.2410441818
1619.939,13.373308501
1621.867,13.2840249855
1623.796,13.2284700936
1625.724,13.2735552319
1627.653,13.1784788234
1629.581,13.2607472777
1631.51,13.3125740974
1633.438,13.1463091534
1635.367,12.7859611571
1637.295,12.9327816822
1639.224,13.322504443
1641.152,13.5059008757
1643.081,13.5191030481
1645.009,13.2789676907
1646.938,13.0263859754
1648.866,13.4894199847
1650.795,13.5587426463
1652.723,12.9992460325
1654.652,13.4340318775
1656.58,13.9466826958
1658.509,14.1073054501
1660.437,14.0955294469
1662.366,14.0696502669
1664.294,14.1373937587
1666.223,14.1240762615
1668.151,13.8297340728
1670.08,13.6388456576
1672.008,13.8924905673
1673.937,13.9097493269
1675.865,13.872324334
1677.794,14.048197541
1679.722,13.9004250113
1681.651,13.6730245536
1683.579,13.2407464507
1685.508,13.5147891622
1687.436,13.9103925733
1689.365,13.9721065492
1691.293,14.1102455455
1693.222,14.054523869
1695.15,13.5895541476
1697.079,13.4878651664
1699.007,13.4917457798
1700.936,13.4771473034
1702.864,13.83506245
1704.793,13.7568969887
1706.721,13.7544797607
1708.65,13.9670419029
1710.578,14.0975625649
1712.507,14.0885185209
1714.435,13.9008261213
1716.364,13.6033706202
1718.292,13.6049428981
1720.221,14.0023740478
1722.149,14.1593100815
1724.078,14.198635408
1726.006,14.2941754133
1727.935,14.2035309723
1729.863,14.1126715033
1731.792,14.081338513
1733.72,13.7529171315
1735.649,13.9632816684
1737.577,14.1719976567
1739.506,14.1703293513
1741.434,14.3570453948
1743.363,14.3485531643
1745.291,14.3413782105
1747.22,14.1115972818
1749.148,13.8758139456
1751.077,13.9726271193
1753.005,14.3394999311
1754.934,14.4717771151
1756.862,14.2875596243
1758.791,14.3320111649
1760.719,14.2449863632
1762.648,14.2168135504
1764.576,14.4015226652
1766.505,14.3551331152
1768.433,14.2266703822
1770.362,14.0675110133
1772.29,13.8192027513
1774.219,14.0167216581
1776.147,14.192691352
1778.076,14.3036201079
1780.004,14.3069613133
1781.933,14.34172005
1783.861,14.3265274896
1785.79,14.3693272654
1787.718,14.4680012589
1789.647,14.3384436286
1791.575,13.9460955037
1793.504,14.055543874
1795.432,14.3757312425
1797.361,14.416632982
1799.289,14.3003946868
1801.218,14.3146839455
1803.146,14.4797230457
1805.075,14.4670313353
1807.003,14.4159203569
1808.932,14.3340185531
1810.86,14.2830343861
1812.789,14.4163655753
1814.717,14.6008927433
1816.646,14.6063993917
1818.574,14.5238548009
1820.503,14.5252483482
1822.431,14.4721924685
1824.36,14.3217036013
1826.288,14.4074809645
1828.217,14.4320515975
1830.145,14.3192666164
1832.074,14.4466712092
1834.002,14.5439245472
1835.931,14.5150074065
1837.859,14.5880347077
1839.788,14.6113647942
1841.716,14.5155376253
1843.645,14.3461474229
1845.573,14.3746827509
1847.502,14.4930070022
1849.43,14.5557455777
1851.359,14.5843406357
1853.287,14.6290618803
1855.216,14.7167156851
1857.144,14.6797496945
1859.073,14.6506873639
1861.001,14.7663582239
1862.93,14.7380406807
1864.858,14.6951219044
1866.786,14.6044333551
1868.715,14.4862584288
1870.644,14.5367854314
1872.572,14.7131346407
1874.5,14.7744337227
1876.429,14.778519256
1878.358,14.8064150134
1880.286,14.9457963941
1882.215,14.9348841789
1884.143,14.8416254009
1886.072,14.8666734146
1888.0,14.8497863595
1889.929,14.8038406495
1891.857,14.9082363195
1893.786,14.9754146734
1895.714,14.9174356616
1897.643,14.9366204846
1899.571,15.1031050513
1901.5,15.2096510021
1903.428,15.1496627643
1905.357,15.0989092471
1907.285,15.0583668066
1909.214,15.0176989331
1911.142,15.0751941318
1913.071,15.1092526488
1914.999,15.1465241815
1916.927,15.237354245
1918.856,15.212476232
1920.785,15.3927556766
1922.713,16.4618311478
1924.641,15.6101247071
1926.57,15.5802877241
1928.499,15.4842556353
1930.427,15.4301976696
1932.355,15.3682231789
1934.284,15.5173759316
1936.213,15.810677899
1938.141,15.5989441662
1940.069,15.807636722
1941.998,16.6805735093
1943.927,16.694670713
1945.855,15.6335512805
1947.783,15.8241883701
1949.712,16.8023800208
1951.641,16.7769520322
1953.569,16.7010530954
1955.497,16.7222756311
1957.426,16.7648102975
1959.354,16.757216774
1961.283,15.7018893157
1963.211,15.79849711
1965.14,16.6985834888
1967.068,16.8873050826
1968.997,16.9642359703
1970.925,15.9187092894
1972.854,15.9531496191
1974.782,16.8703835678
1976.711,16.9252405374
1978.639,16.1426454058
1980.568,16.3166982256
1982.496,15.957264558
1984.425,16.0406766125
1986.354,17.0580143995
1988.282,16.9532088897
1990.21,17.0471734008
1992.139,17.1794358821
1994.068,17.0860829145
1995.996,16.9517078283
1997.924,16.9995658179
1999.853,17.1603342216
2001.781,17.1887225219
2003.71,17.2415293734
2005.638,17.1372370822
2007.567,16.9971407791
2009.495,16.9728931476
2011.424,17.0544958419
2013.352,17.1843025004
2015.281,17.1450313904
2017.209,17.1309015649
2019.138,17.0367100797
2021.066,17.0288091764
2022.995,17.1157030315
2024.923,17.0503096864
2026.852,17.0004433897
2028.78,17.1158978433
2030.709,17.2064545271
2032.637,17.0681758544
2034.566,17.054331814
2036.494,17.1792759895
2038.423,17.1994514119
2040.351,17.0211095173
2042.28,16.9890703344
2044.208,16.9727461198
2046.137,16.9371456494
2048.065,15.8953562298
2049.994,14.8207483804
2051.922,14.0487089218
2053.851,13.31384359
2055.779,12.5923063231
2057.708,11.8961579905
2059.636,11.2828818448
2061.565,10.7814078917
2063.493,10.3201294855
2065.422,9.89977808919
2067.35,9.56354953457
2069.279,9.27926863806
2071.207,9.00756274868
2073.136,8.76614273637
2075.064,8.55556592816
2076.993,8.36391572554
2078.921,8.17769222499
2080.85,8.00820737344
2082.778,7.85535687309
2084.707,7.71580824826
2086.635,7.58223951738
2088.564,7.45900362056
2090.492,7.34446395523
2092.421,7.24372973544
2094.349,7.14831672532
2096.278,7.05917325382
2098.206,6.97627483161
2100.135,6.89888030104
2102.063,6.8240186909
2103.992,6.75618165278
2105.92,6.68905475864
2107.849,6.62667534437
2109.777,6.56889716328
2111.706,6.51491436553
2113.634,6.45931251666
2115.563,6.40353400476
2117.491,6.35073946684
2119.42,6.30293610726
2121.348,6.25362258897
2123.277,6.20829742793
2125.205,6.16574902364
2127.134,6.12433429514
2129.062,6.07977344863
2130.991,6.03625489097
2132.919,5.99336818503
2134.848,5.95428017055
2136.776,5.91552958474
2138.705,5.87844785569
2140.633,5.84197656745
2142.562,5.80743345616
2144.49,5.77279932551
2146.419,5.73831599019
2148.347,5.70352941014
2150.276,5.66965669941
2152.204,5.63573868576
2154.133,5.60293969106
2156.061,5.57147005688
2157.99,5.54114921478
2159.918,5.50905728568
2161.847,5.47683909651
2163.775,5.44439264678
2165.704,5.41379447359
2167.632,5.38137228343
2169.561,5.35030173768
2171.489,5.32016187754
2173.418,5.29047738989
2175.346,5.25824298172
2177.275,5.22803383476
2179.203,5.19791203146
2181.132,5.16736982072
2183.06,5.1356529502
2184.989,5.10545919521
2186.917,5.07570606398
2188.846,5.04554833078
2190.774,5.01460128833
2192.703,4.98509291234
2194.631,4.95518645874
2196.56,4.92527674297
2198.488,4.89436907639
2200.417,4.86514630179
2202.345,4.83634228058
2204.274,4.80782620402
2206.202,4.77906721006
2208.131,4.75284481222
2210.059,4.72414118339
2211.988,4.69731813128
2213.916,4.67045694384
2215.845,4.64421272158
2217.773,4.61695552411
2219.702,4.58968559955
2221.63,4.56211803571
2223.559,4.53608447663
2225.487,4.50851847495
2227.416,4.48132376428
2229.344,4.45554640104
2231.273,4.43310716485
2233.201,4.40917173759
2235.13,4.38471698079
2237.058,4.35998351451
2238.987,4.33725302556
2240.915,4.31441318471
2242.844,4.29189110758
2244.772,4.26876116262
2246.701,4.24678161786
2248.629,4.22436806557
2250.558,4.20136038337
2252.486,4.17806098895
2254.415,4.15853694531
2256.343,4.13735102873
2258.272,4.11563994744
2260.2,4.0950862961
2262.129,4.0751749722
2264.057,4.05387088207
2265.986,4.03362024572
2267.914,4.01252691067
2269.843,3.99212920063
2271.771,3.97070909642
2273.7,3.95072242081
2275.628,3.93042735451
2277.557,3.91085764039
2279.485,3.88955253944
2281.414,3.86876975456
2283.342,3.84792448288
2285.271,3.8286144565
2287.199,3.81008583663
2289.128,3.79272209
2291.056,3.77425692179
2292.985,3.75604537644
2294.913,3.73676415831
2296.842,3.7196052397
2298.77,3.70285666633
2300.699,3.68596814093
2302.627,3.66878606545
2304.556,3.6536468945
2306.484,3.63754593239
2308.413,3.62260102184
2310.341,3.60599575457
2312.27,3.59056073624
2314.198,3.57523166978
2316.127,3.56009102855
2318.055,3.54553836046
2319.984,3.5349759334
2321.912,3.52276757671
2323.841,3.50949147699
2325.769,3.49520612371
2327.698,3.48049195483
2329.626,3.46301527251
2331.555,3.44780640122
2333.483,3.42929046249
2335.412,3.41498025234
2337.34,3.40054947943
2339.269,3.3870857815
2341.197,3.37275618206
2343.126,3.35609146044
2345.054,3.33353281016
2346.983,3.30145540005
2348.911,3.28013582607
2350.84,3.27487719508
2352.768,3.27181456126
2354.697,3.26900885842
2356.625,3.26351038843
2358.554,3.25352357498
2360.482,3.23389426867
2362.411,3.21709520046
2364.339,3.19813418119
2366.268,3.17751726198
2368.196,3.153871801
2370.125,3.125894673
2372.053,3.09573882359
2373.982,3.07175000689
2375.91,3.04910993999
2377.839,3.02513205848
2379.767,3.00087923509
2381.696,2.97930208688
2383.624,2.95823393033
2385.553,2.94006134733
2387.481,2.92388388484
2389.41,2.90914917802
2391.338,2.89482688402
2393.267,2.88133842111
2395.195,2.86744002646
2397.124,2.85388480376
2399.052,2.83989833032
2400.981,2.82693728348
2402.909,2.81346186927
2404.838,2.80016905893
2406.766,2.78719266148
2408.695,2.7750396929
2410.623,2.76277821784
2412.552,2.75117199949
2414.48,2.73837168613
2416.409,2.7257074929
2418.337,2.71312756035
2420.266,2.7011494537
2422.194,2.68803194637
2424.123,2.67638225835
2426.051,2.66543710429
2427.98,2.65359528776
2429.908,2.64089614328
2431.837,2.62942852154
2433.765,2.617538581
2435.694,2.60677541053
2437.622,2.59627077456
2439.551,2.58678745302
2441.479,2.57604086912
2443.408,2.56513942365
2445.336,2.55408009336
2447.265,2.54453961479
2449.193,2.53509029341
2451.122,2.52592689964
2453.05,2.51648316532
2454.979,2.50791670878
2456.907,2.50009348208
2458.836,2.49316311809
2460.764,2.4854860002
2462.693,2.47882333698
2464.621,2.47333306378
2466.55,2.46921726565
2468.478,2.46612090275
2470.406,2.46274105658
2472.335,2.46003185448
2474.264,2.45983889435
2476.192,2.45968234197
2478.121,2.45991783447
2480.049,2.46154951159
2481.978,2.46347030959
2483.906,2.46340754252
2485.834,2.46272401055
2487.763,2.45978736572
2489.692,2.45513213659
2491.62,2.44702212308
2493.549,2.43608635583
2495.477,2.42196894039
2497.406,2.40558721502
2499.334,2.38743782564
2501.262,2.3687934761
2503.191,2.3492628686
2505.12,2.32936834345
2507.048,2.30946298209
2508.977,2.29059549544
2510.905,2.27250183187
2512.833,2.25524118017
2514.762,2.23921655073
2516.69,2.22425781779
2518.619,2.20916509791
2520.548,2.19550092398
2522.476,2.18298733402
2524.405,2.17062545638
2526.333,2.15861662608
2528.261,2.14666420472
2530.19,2.13479353629
2532.119,2.12329831056
2534.047,2.11240821655
2535.976,2.10259473824
2537.904,2.09213889481
2539.833,2.08262165994
2541.761,2.07385320291
2543.689,2.06579588276
2545.618,2.05816347463
2547.547,2.04980252015
2549.475,2.04187478199
2551.404,2.03560435983
2553.332,2.02974084569
2555.26,2.02323682264
2557.189,2.0154326057
2559.117,2.00789644193
2561.046,2.00009406821
2562.975,1.99210390359
2564.903,1.98370494702
2566.832,1.97510509084
2568.76,1.96648276927
2570.688,1.95786961442
2572.617,1.94942983836
2574.545,1.94083537487
2576.474,1.93135238874
2578.403,1.92157884363
2580.331,1.9126122373
2582.26,1.90414024149
2584.188,1.89492302179
2586.116,1.8860574465
2588.045,1.87686435312
2589.973,1.86774294037
2591.902,1.85907814065
2593.831,1.85075075122
2595.759,1.84175484962
2597.688,1.83310466078
2599.616,1.82476046883
2601.544,1.81668889849
2603.473,1.8089990944
2605.401,1.80220293091
2607.33,1.79587371052
2609.259,1.78877287154
2611.187,1.78062162319
2613.115,1.77334875164
2615.044,1.76656208623
2616.972,1.75982313482
2618.901,1.75353291446
2620.829,1.74831767365
2622.758,1.74316060575
2624.687,1.73772725894
2626.615,1.73187186624
2628.543,1.72614384092
2630.472,1.72040201704
2632.4,1.71522563245
2634.329,1.70953366476
2636.258,1.70393017561
2638.186,1.6976921285
2640.115,1.69173579115
2642.043,1.68540848901
2643.971,1.67883452947
2645.9,1.67198882589
2647.828,1.66527343944
2649.757,1.65846638578
2651.686,1.65115080452
2653.614,1.64261060162
2655.542,1.6334288983
2657.471,1.62508551042
2659.399,1.61762471169
2661.328,1.60852032659
2663.256,1.59989803167
2665.185,1.59050083163
2667.114,1.57958931016
2669.042,1.57019479338
2670.97,1.56104462751
2672.899,1.55082387914
2674.827,1.54019557446
2676.756,1.52950235704
2678.684,1.51944982678
2680.613,1.50953160637
2682.542,1.49970770379
2684.47,1.4889676856
2686.398,1.47722563796
2688.327,1.46527029442
2690.255,1.45357873547
2692.184,1.44151445742
2694.112,1.43009977211
2696.041,1.41893023671
2697.969,1.40710557832
2699.898,1.395811198
2701.826,1.38502294092
2703.755,1.3739780607
2705.683,1.36271592862
2707.612,1.35245669114
2709.54,1.34163754905
2711.469,1.3306117273
2713.397,1.32060434375
2715.326,1.31053564044
2717.254,1.3002364252
2719.183,1.2907187589
2721.111,1.2819566406
2723.04,1.27392566829
2724.969,1.26583578839
2726.897,1.25803733126
2728.825,1.25077017267
2730.754,1.24412250168
2732.682,1.23612076951
2734.611,1.22902605607
2736.539,1.22283110648
2738.468,1.21688094429
2740.396,1.21104663536
2742.325,1.20536570854
2744.253,1.20028669031
2746.182,1.19485067908
2748.11,1.18877519826
2750.039,1.18338431995
2751.967,1.17830303061
2753.896,1.17327165811
2755.824,1.16843356643
2757.753,1.16327509947
2759.681,1.15906826912
2761.61,1.15462394117
2763.538,1.14999399989
2765.467,1.1450308019
2767.395,1.14096277239
2769.324,1.1358188292
2771.252,1.13048126591
2773.181,1.12641952942
2775.109,1.12340248293
2777.038,1.12009642585
2778.966,1.11574980657
2780.895,1.11143199691
2782.823,1.10775530449
2784.752,1.10397494188
2786.68,1.09998727199
2788.609,1.09618208007
2790.537,1.09279087831
2792.466,1.08949491376
2794.394,1.0858534455
2796.323,1.08230380986
2798.251,1.07876935942
2800.18,1.07507914228
2802.108,1.0716552613
2804.037,1.06905316431
2805.965,1.06576251344
2807.894,1.06243891457
2809.822,1.05889692436
2811.751,1.05411417623
2813.679,1.05036573151
2815.608,1.04761596354
2817.536,1.04346044035
2819.465,1.03881109232
2821.393,1.03468899957
2823.322,1.02929851226
2825.25,1.02465521994
2827.179,1.02042155151
2829.107,1.01550913869
2831.036,1.01166009483
2832.964,1.00715199452
2834.893,1.00260520294
2836.821,0.997892848938
2838.75,0.993278341895
2840.678,0.988131433612
2842.607,0.98325201474
2844.535,0.978530136093
2846.464,0.973763565607
2848.392,0.968851671981
2850.321,0.964144629352
2852.249,0.960467681464
2854.178,0.956472560948
2856.106,0.951803143637
2858.035,0.94674541687
2859.963,0.94155859515
2861.892,0.937026993375
2863.82,0.932713714013
2865.749,0.928211209946
2867.677,0.923634420113
2869.606,0.920043432914
2871.534,0.914888098104
2873.463,0.909554124588
2875.391,0.904899823567
2877.32,0.900372788841
2879.248,0.895614885181
2881.177,0.890905364215
2883.105,0.886756771087
2885.034,0.881795822115
2886.962,0.876084822602
2888.891,0.871149739945
2890.819,0.865958114553
2892.748,0.859839584003
2894.676,0.854013008739
2896.605,0.848787494372
2898.533,0.843303008399
2900.462,0.837916016375
2902.39,0.832761623921
2904.319,0.828077535539
2906.247,0.822627756081
2908.176,0.817819441203
2910.104,0.814380721447
2912.033,0.811460038319
2913.961,0.807264852099
2915.89,0.802900505408
2917.818,0.799104654347
2919.747,0.794856357112
2921.675,0.792083173134
2923.604,0.789581242017
2925.532,0.786714674288
2927.461,0.783963027117
2929.389,0.780965972267
2931.318,0.778234040598
2933.246,0.774523963225
2935.175,0.771896496605
2937.103,0.769982582267
2939.032,0.768286451394
2940.96,0.766540200601
2942.889,0.764787564669
2944.817,0.762737829319
2946.746,0.760035437821
2948.674,0.758348903724
2950.603,0.757515168668
2952.531,0.755564531854
2954.46,0.753607514037
2956.388,0.751257588469
2958.317,0.750144496568
2960.245,0.748554057047
2962.174,0.746020643154
2964.102,0.743364794207
2966.031,0.741515601941
2967.959,0.738601814414
2969.888,0.735736473907
2971.816,0.732808164634
2973.745,0.729906299679
2975.673,0.72608914439
2977.602,0.722458234858
2979.53,0.716522095972
2981.459,0.710414682558
2983.387,0.704095319464
2985.316,0.698414347151
2987.244,0.692210036481
2989.173,0.685176192992
2991.101,0.677656817952
2993.03,0.669246625254
2994.958,0.661814777207
2996.887,0.655328524301
2998.815,0.647295401707
3000.744,0.639161022946
3002.672,0.631122602759
3004.601,0.622409775507
3006.529,0.61333392757
3008.458,0.605315627211
3010.386,0.59706255571
3012.315,0.589457159792
3014.243,0.581347757367
3016.172,0.572617635978
3018.1,0.563650266947
3020.029,0.556878440219
3021.957,0.550219098904
3023.886,0.544210819404
3025.814,0.536956691141
3027.743,0.528020675776
3029.671,0.520093128291
3031.6,0.5155171563
3033.528,0.509672458947
3035.457,0.503121219779
3037.385,0.49740098141
3039.314,0.49257185062
3041.242,0.485964635233
3043.171,0.4805915845
3045.099,0.475389531625
3047.028,0.469205627487
3048.956,0.464305004457
3050.885,0.459786612205
3052.813,0.454358233094
3054.742,0.449972308244
3056.67,0.446183554947
3058.599,0.442018194683
3060.527,0.436879065087
3062.456,0.433436759692
3064.384,0.429152481553
3066.313,0.424977757459
3068.241,0.421368226386
3070.17,0.418310044752
3072.098,0.414041250471
3074.027,0.410088028266
3075.955,0.406799899837
3077.884,0.403074676309
3079.812,0.398577433079
3081.741,0.39465371291
3083.669,0.391692133097
3085.598,0.389620764912
3087.526,0.386602234822
3089.455,0.383564434908
3091.383,0.381211968058
3093.312,0.378750650138
3095.24,0.375308358527
3097.169,0.372587389614
3099.097,0.370451508413
3101.026,0.368171158671
3102.954,0.364490144547
3104.883,0.361620985453
3106.811,0.359215234831
3108.74,0.357121178427
3110.668,0.353572921166
3112.597,0.351652164524
3114.525,0.350333642704
3116.454,0.348395141652
3118.382,0.345704630455
3120.311,0.342398569236
3122.239,0.338920287991
3124.167,0.337095094787
3126.096,0.334622795733
3128.025,0.333470635803
3129.953,0.331489873464
3131.882,0.329391461364
3133.81,0.327282564348
3135.739,0.325024682282
3137.667,0.321678937357
3139.595,0.320217495382
3141.524,0.319369715042
3143.453,0.317486960477
3145.381,0.314064811667
3147.31,0.311386255663
3149.238,0.309176529778
3151.167,0.308665925402
3153.095,0.307792589802
3155.023,0.306127813054
3156.952,0.302937081316
3158.881,0.299589810977
3160.809,0.297112770278
3162.738,0.296612682981
3164.666,0.296466390377
3166.594,0.293424836661
3168.523,0.290201156925
3170.452,0.289098821021
3172.38,0.287370298558
3174.309,0.284550085919
3176.237,0.282694696893
3178.166,0.281813752607
3180.094,0.27847841449
3182.022,0.276116919217
3183.951,0.27618250278
3185.88,0.275932174265
3187.808,0.27394968435
3189.737,0.27169090174
3191.665,0.269755143674
3193.594,0.269216622405
3195.522,0.268524503092
3197.45,0.267143227994
3199.379,0.263725885153
3201.308,0.262967571194
3203.236,0.262797547393
3205.165,0.26248951049
3207.093,0.260303033366
3209.021,0.258359795264
3210.95,0.256535484227
3212.878,0.255398380857
3214.807,0.253216456999
3216.736,0.251544719407
3218.664,0.249834942981
3220.593,0.250016632513
3222.521,0.247994734569
3224.449,0.244824605093
3226.378,0.243173750034
3228.306,0.242807265008
3230.235,0.241156281301
3232.164,0.24039156704
3234.092,0.237997904855
3236.021,0.237457642226
3237.949,0.236638426619
3239.877,0.235362235005
3241.806,0.233077042537
3243.734,0.231209781021
3245.663,0.229262155059
3247.592,0.228253080691
3249.52,0.227454237615
3251.448,0.227123319519
3253.377,0.224787158965
3255.305,0.222359207153
3257.234,0.220337758103
3259.162,0.220021788133
3261.091,0.217798231991
3263.02,0.215445160031
3264.948,0.214061260028
3266.876,0.214660855701
3268.805,0.214391119065
3270.733,0.213205792893
3272.662,0.210359113423
3274.591,0.209633654191
3276.519,0.209200519192
3278.448,0.207921580916
3280.376,0.205382824862
3282.304,0.204416695919
3284.233,0.203621149481
3286.161,0.202493084183
3288.09,0.200740072411
3290.019,0.200025492773
3291.947,0.199237404317
3293.875,0.198142486882
3295.804,0.195823272194
3297.732,0.194925468421
3299.661,0.193801073762
3301.589,0.193131656451
3303.518,0.191753677991
3305.447,0.190505502973
3307.375,0.188565678211
3309.303,0.187325403637
3311.232,0.186343082345
3313.16,0.186647736692
3315.089,0.185679047168
3317.017,0.183623908089
3318.946,0.180628255975
3320.875,0.180075966937
3322.803,0.179582665889
3324.731,0.179219661285
3326.66,0.177471123751
3328.588,0.17714099501
3330.517,0.175002006929
3332.445,0.172268096358
3334.374,0.171403963776
3336.302,0.17161259844
3338.231,0.17054942843
3340.159,0.170409146044
3342.088,0.169131727208
3344.016,0.167627077456
3345.945,0.165605253944
3347.873,0.165071008886
3349.802,0.164596754363
3351.73,0.16376885447
3353.659,0.16185080268
3355.587,0.161782198616
3357.516,0.161467110354
3359.444,0.160378520166
3361.373,0.158345795007
3363.302,0.157819734339
3365.23,0.157607267306
3367.158,0.157440245628
3369.087,0.155862499196
3371.015,0.155415316615
3372.944,0.153221301241
3374.872,0.151883450098
3376.801,0.150003722329
3378.729,0.149660132081
3380.658,0.149837547302
3382.586,0.149593627955
3384.515,0.147985955547
3386.443,0.147148621247
3388.372,0.145317811446
3390.3,0.145615191963
3392.229,0.144939716328
3394.157,0.1451944571
3396.086,0.144967371328
3398.014,0.143974358178
3399.943,0.141417831708
3401.871,0.141399302767
3403.8,0.141037362874
3405.728,0.140617439328
3407.657,0.139302502504
3409.585,0.138206817033
3411.514,0.136415417237
3413.442,0.136544252961
3415.371,0.136459588598
3417.299,0.13687560943
3419.228,0.135064374902
3421.156,0.133729920651
3423.085,0.13334919948
3425.013,0.134396960385
3426.942,0.133049474881
3428.87,0.132195930823
3430.799,0.132807541466
3432.727,0.132683221102
3434.656,0.132188535512
3436.584,0.131376882277
3438.513,0.130994967562
3440.441,0.130380994091
3442.37,0.127950403412
3444.298,0.12800706041
3446.227,0.128977862906
3448.155,0.127845603273
3450.084,0.126216598607
3452.012,0.126908877443
3453.941,0.126128663564
3455.869,0.123829694182
3457.798,0.123683378789
3459.726,0.12342158937
3461.655,0.12091456682
3463.583,0.121642680362
3465.512,0.120063774432
3467.44,0.118992825046
3469.369,0.118550491624
3471.297,0.118976456723
3473.226,0.116991849609
3475.154,0.117113370795
3477.083,0.117186573151
3479.011,0.116409171315
3480.94,0.113125590179
3482.868,0.112673989873
3484.797,0.112096038521
3486.725,0.112040342115
3488.654,0.111475163339
3490.582,0.111068387657
3492.511,0.108314720693
3494.439,0.10617447966
3496.368,0.104505479081
3498.296,0.104869625447
3500.225,0.105770217693
3502.153,0.106906790844
3504.082,0.102676614778
3506.01,0.100225519421
3507.939,0.0998126181965
3509.867,0.101883061945
3511.796,0.102072054621
3513.724,0.0997673722467
3515.653,0.0959964998208
3517.581,0.0946876161289
3519.51,0.0937405451972
3521.438,0.094961629435
3523.367,0.0934434466978
3525.295,0.0901454885456
3527.224,0.089540152817
3529.152,0.089938088915
3531.081,0.0893585662038
3533.009,0.0903768596712
3534.938,0.08925915845
3536.866,0.0868405511702
3538.795,0.085861742922
3540.723,0.0842661964842
3542.652,0.0826803910938
3544.58,0.0833544485081
3546.509,0.0822057823254
3548.437,0.0821787682751
3550.366,0.0838708641556
3552.294,0.0848041645608
3554.223,0.0839700518273
3556.151,0.0838547062661
3558.08,0.0850340024627
3560.008,0.0895548082666
3561.937,0.0922447869476
3563.865,0.0970133032539
3565.794,0.0958215096992
3567.722,0.0865641036362
3569.651,0.0824514716558
3571.579,0.0818648769102
3573.508,0.0787963481985
3575.436,0.0755849420619
3577.365,0.071005325161
3579.293,0.0707962609007
3581.222,0.0727451044356
3583.15,0.0764782472455
3585.079,0.0792846438712
3587.007,0.0836179534657
3588.936,0.0847610013508
3590.864,0.0906998731886
3592.793,0.0999798438749
3594.721,0.111007147846
3596.65,0.12239146504
3598.578,0.127315000505
3600.507,0.116006301977
3602.435,0.0972349608998
3604.364,0.0816464805234
3606.292,0.0703528987438
3608.221,0.0606422769084
3610.149,0.058990236439
3612.078,0.0600820001286
3614.006,0.0607609512695
3615.935,0.0586314428016
3617.863,0.0591863994744
3619.792,0.0571682824403
3621.72,0.0555196511767
3623.649,0.0563122961139
3625.577,0.0588732988431
3627.506,0.0582708352095
3629.434,0.05411766814
3631.363,0.05343876754
3633.291,0.0539144252594
3635.22,0.0525021916323
3637.148,0.0513275088906
3639.077,0.0483189904708
3641.005,0.0499993337805
3642.934,0.0514162493223
3644.862,0.0523863062037
3646.791,0.0526015070344
3648.719,0.0492113781094
3650.648,0.0435641408526
3652.576,0.0433357837957
3654.505,0.0437406844141
3656.433,0.0436735570605
3658.362,0.04342071529
3660.29,0.0449971053913
3662.219,0.0447543442103
3664.147,0.0444732914917
3666.076,0.0457834051625
3668.004,0.0475975023662
3669.933,0.0435263914797
3671.861,0.04407232846
3673.79,0.0431396533821
3675.718,0.0362654723726
3677.647,0.0430987612913
3679.575,0.0464081536072
3681.504,0.0427213272929
3683.432,0.0418248072558
3685.361,0.0436194738245
3687.289,0.0468049355375
3689.218,0.0441687786589
3691.146,0.0454417907979
3693.075,0.0445569824394
3695.003,0.0442458257905
3696.932,0.0429810196374
3698.86,0.0411014169799
3700.789,0.0376300506327
3702.717,0.0358467695248
3704.646,0.0387414333367
3706.574,0.0424947621367
3708.503,0.0436957996012
3710.431,0.0420775663233
3712.36,0.0335959723588
3714.288,0.0316282495428
3716.217,0.0335385212685
3718.145,0.0357840851658
3720.074,0.0376067283571
3722.002,0.0400436029148
3723.931,0.0374694457973
3725.859,0.037109379451
3727.788,0.0375689008757
3729.716,0.0395939093758
3731.645,0.0382625134393
3733.573,0.0340649678836
3735.502,0.0273486211555
3737.43,0.0299700660706
3739.359,0.0346102708067
3741.287,0.0369845437086
3743.216,0.0310139308786
3745.144,0.0221457871957
3747.073,0.02689594571
3749.001,0.0283021511997
3750.93,0.0260160122401
3752.858,0.0255665024857
3754.787,0.0265277377025
3756.715,0.0287952087334
3758.644,0.0271993696186
3760.572,0.0261319803718
3762.5,0.029032529888
3764.429,0.0290427299376
3766.358,0.025820079395
3768.286,0.0279810609889
3770.215,0.0275263133713
3772.143,0.0281384495925
3774.072,0.0278483914246
3776.0,0.02801121546
3777.928,0.027215041857
3779.857,0.0266579721199
3781.786,0.0265257022872
3783.714,0.0251423550169
3785.643,0.0236556656222
3787.571,0.0262189334975
3789.5,0.0247492947263
3791.428,0.0233432776159
3793.356,0.0232258392068
3795.285,0.0226847633313
3797.214,0.0207668002169
3799.142,0.023058498663
3801.071,0.0216947520285
3802.999,0.0210412504709
3804.927,0.0220899258429
3806.856,0.0230436075094
3808.785,0.0215091616662
3810.713,0.0217987190208
3812.642,0.0217817051542
3814.57,0.0225727741378
3816.499,0.0193868437738
3818.427,0.0228558668664
3820.355,0.0228860948513
3822.284,0.0226102110767
3824.213,0.0233766758865
3826.141,0.0239765490751
3828.07,0.0227303694991
3829.998,0.0204041884528
3831.927,0.0167548266451
3833.855,0.0172926908834
3835.783,0.0185481515856
3837.712,0.0210241906582
3839.641,0.023005913272
3841.569,0.0228341297336
3843.498,0.0201860406348
3845.426,0.0200369407203
3847.354,0.0193260891539
3849.283,0.0190537386398
3851.211,0.0162976990158
3853.14,0.00613210442645
3855.069,0.00942702829365
3856.997,0.0171410869026
3858.926,0.0172084669601
3860.854,0.0168837378128
3862.782,0.0132940876469
3864.711,0.010694122566
3866.639,0.0116996452956
3868.568,0.0137678845465
3870.497,0.0125281420288
3872.425,0.0182937660237
3874.354,0.0177691480661
3876.282,0.0154916883379
3878.21,0.0124300561462
3880.139,0.0119621725187
3882.067,0.0135053113772
3883.996,0.0153935289415
3885.925,0.0136016099538
3887.853,0.0148842845722
3889.781,0.0141075829558
3891.71,0.0117773816197
3893.638,0.0121071280887
3895.567,0.0149908429284
3897.495,0.0158891778392
3899.424,0.0160879317791
3901.353,0.0159518208467
3903.281,0.0127498047288
3905.209,0.00918383062404
3907.138,0.00966574161712
3909.066,0.0112547531312
3910.995,0.0143798921184
3912.924,0.0134155876975
3914.852,0.0131795392518
3916.781,0.0105358563907
3918.709,0.0108858421473
3920.637,0.0119930023984
3922.566,0.0129791312498
3924.494,0.0112434044274
3926.423,0.0100916901758
3928.352,0.0107273324573
3930.28,0.0122528831221
3932.208,0.0123851437656
3934.137,0.0115403637099
3936.065,0.00940195546897
3937.994,0.00966948622993
3939.922,0.0104859772291
3941.851,0.0121889352435
3943.78,0.0111169054336
3945.708,0.0123016779541
3947.636,0.0131025013095
3949.565,0.011467038218
3951.493,0.0112803727153
3953.422,0.0122374773715
3955.35,0.0115727695432
3957.279,0.011254684212
3959.208,0.00978708085607
3961.136,0.0110998548101
3963.064,0.0112236889261
3964.993,0.011473479871
3966.921,0.0101616799757
3968.85,0.00990425277745
3970.778,0.00892057285684
3972.707,0.00840592521801
3974.635,0.00735418983119
3976.564,0.00847584150409
3978.492,0.00828879464819
3980.421,0.00879281493802
3982.349,0.00840164303502
3984.278,0.00765871644781
3986.206,0.00696785146522
3988.135,0.00841143875835
3990.063,0.0074991040497
3991.992,0.00648412100383
3993.92,0.00499713755364
3995.849,0.00612877332917
3997.777,0.00556024002279
3999.706,0.0071932541834
4001.634,0.00676407560902
4003.563,0.00499581889858
4005.491,0.00553004879483
4007.42,0.00805926136938
4009.348,0.00809671668673
4011.277,0.0075223390276
4013.205,0.00691650202623
4015.134,0.0058270264558
4017.063,0.00539503138123
4018.991,0.00550771436185
4020.919,0.00354374534795
4022.848,0.00500349190888
4024.776,0.00531388125672
4026.705,0.00637086829071
4028.633,0.00461512731684
4030.562,0.00493019857934
4032.49,0.00639269731582
4034.419,0.00567591409904
4036.347,0.00499867675032
4038.276,0.00528245867142
4040.204,0.00348379938065
4042.133,0.00334710493186
4044.061,0.00460527186348
4045.99,0.0047344908705
4047.918,0.00424831607289
4049.847,0.00441405769001
4051.775,0.00375966937136
4053.704,0.0044914586071
4055.632,0.00402595958575
4057.561,0.00361594515865
4059.489,0.00397540042087
4061.418,0.00525189527949
4063.346,0.00286048905103
4065.275,0.00302865203128
4067.203,0.0029858210121
4069.132,0.00279792415206
4071.06,0.00121913106604
4072.989,0.00168603144556
4074.917,0.00127649485862
4076.846,0.00254246804444
4078.774,0.00259741506851
4080.703,0.00342323773467
4082.631,0.00355655514
4084.56,0.00353655017781
4086.488,0.00367349273591
4088.417,0.00540786414637
4090.345,0.0062909127666
4092.274,0.00542213962122
4094.202,0.00216380268877
4096.131,0.00137044558595
4098.059,0.000537652885879
4099.988,0.00402922176378
4101.917,0.00471601132114
4103.845,0.00336416014997
4105.773,0.0010623305735
4107.702,0.000435895904358
4109.63,0.00226363452579
4111.559,0.00338183564136
4113.487,0.00191654337778
4115.416,0.0015666678919
4117.344,0.00119409959292
4119.273,0.00328758626393
4121.201,0.00254512373303
4123.13,0.00481031583397
4125.058,0.00335224171361
4126.987,0.00185106089705
4128.916,-0.000295948466776
4130.844,-0.000210989404813
4132.772,0.00114393097047
4134.701,0.00350405704676
4136.629,0.00364819936962
4138.558,0.00146317414517
4140.486,0.000188926054235
4142.415,0.00151910441726
4144.343,0.00311049594295
4146.272,0.00424358821205
4148.2,0.00186882368617
4150.129,0.00141383255378
4152.057,0.00185415766888
4153.986,0.00287005963813
4155.914,0.000236650340461
4157.843,0.00103463422254
4159.771,0.00327939865653
4161.7,0.00241599202374
4163.628,-0.000771551050789
4165.557,0.0014803717964
4167.485,0.00248949211104
4169.414,0.0018160177536
4171.342,-0.00115341885447
4173.271,-0.00158607095926
4175.199,0.000690809847183
4177.128,0.00159300423624
4179.056,-0.000184110895675
4180.985,0.00171208751826
4182.913,0.000850821976972
4184.842,0.000729266791027
4186.77,0.000866521783079
4188.699,0.000400508164634
4190.627,-0.00155864109609
4192.556,0.00218591198552
4194.484,0.00397390257574
4196.413,0.0024237890887
4198.341,0.00225309447451
4200.27,0.00299782215157
4202.198,0.00298195234463
4204.127,0.00343540428035
4206.055,7.41249552024e-05
4207.984,-0.00152677742757
4209.912,-0.00188317726951
4211.841,-0.000346751146357
4213.769,-0.00033231485991
4215.698,0.001290260331
4217.626,0.0017254624482
4219.555,0.00263246740119
4221.483,0.000471614456503
4223.412,-0.000235736011689
4225.34,-0.000747190391737
4227.269,-0.000144647730719
4229.197,-0.000114442718911
4231.125,0.00195934223464
4233.054,0.00290023248762
4234.983,0.00323357194711
4236.911,0.00169551473494
4238.84,0.00171991215092
4240.768,0.000201869090174
4242.697,0.00253607693227
4244.625,0.00160210617241
4246.554,-0.000172964354962
4248.482,3.09217720513e-06
4250.411,0.00205309539344
4252.339,0.000447915422291
4254.268,0.00111218216737
4256.196,0.000941124578444
4258.125,-0.00079163871608
4260.053,0.00031464855775
4261.982,0.00307642226368
4263.91,0.00127419295553
4265.839,0.00350329434035
4267.767,0.00407185061981
4269.696,0.00324894094079
4271.624,0.00126043207778
4273.553,0.00116544296702
4275.481,-0.000877833730002
4277.41,-0.001055415675
4279.338,0.000842340314088
4281.267,0.00488574566038
4283.195,0.00444932137508
4285.124,0.00290687630372
4287.052,0.00183316026943
4288.98,0.00382458211959
4290.909,0.00396498901887
4292.838,0.0010917728789
4294.766,-0.00167984709115
4296.695,0.000207970741479
4298.623,0.00314700476921
4300.552,0.0040894158404
4302.48,0.00414300285785
4304.409,0.00347802854176
4306.337,-0.00179688576863
4308.266,-2.39011973573e-05
4310.194,0.00304056127841
4312.123,0.00479140439062
4314.051,0.00423914521746
4315.979,0.00343856997142
4317.908,0.00219659446992
4319.836,0.00436569015741
4321.765,0.00425620503019
4323.694,0.00170121205995
4325.622,-0.00211510434375
4327.551,-0.000460270347261
4329.479,0.000625125203312
4331.408,0.00325389853248
4333.336,0.00432030912583
4335.265,0.0042287705724
4337.193,0.00241016604946
4339.122,0.00490397250581
4341.05,0.00370036205582
4342.979,0.00169380553743
4344.907,0.00285718552144
4346.835,0.00401028275273
4348.764,0.00355129430359
4350.693,0.00435360631484
4352.621,0.00373543276697
4354.55,0.00302316146403
4356.478,0.00409036692611
4358.407,0.00616634810656
4360.335,0.00611554083236
4362.264,0.0054617452193
4364.192,0.00190737252235
4366.121,-0.000167193516077
4368.049,-0.00101112816225
4369.978,0.00145275814855
4371.906,0.00284470654182
4373.834,0.00442306313923
4375.763,0.0054150041811
4377.691,0.00579402332228
4379.62,0.00507669794069
4381.549,0.00337778318922
4383.477,-0.000321953998695
4385.406,0.00286053040258
4387.334,0.00523537763157
4389.263,0.00298299072806
4391.191,0.00168676658427
4393.12,0.00339955248431
4395.048,0.00342010420591
4396.977,0.00369552392417
4398.905,0.00365797671448
4400.833,0.00407758929638
4402.762,0.00259953778154
4404.69,0.00422555893515
4406.619,0.0043844224107
4408.547,0.00433045863466
4410.476,0.00465627211159
4412.405,0.00748916589324
4414.333,0.0046661689165
4416.262,0.00217751302574
4418.19,0.00284704520184
4420.119,0.00709636749584
4422.047,0.00739059757588
4423.976,0.00496389090542
4425.904,0.00362080166876
4427.833,0.00442017771978
4429.761,0.0056923858008
4431.689,0.00780928204516
4433.618,0.00530730635987
4435.546,0.00505825974289
4437.475,0.0048438335646
4439.403,0.00510015805482
4441.332,0.00465432858863
4443.261,0.00578002352444
4445.189,0.00744744217675
4447.118,0.00599624160334
4449.046,0.00403972505812
4450.975,0.00616227268133
4452.903,0.00472939084569
4454.832,0.00448919805556
4456.76,0.00485906931439
4458.688,0.00628958951692
4460.617,0.00400996572416
4462.545,0.00449404997105
4464.474,0.00663602822933
4466.402,0.00764985802634
4468.331,0.00898649182618
4470.26,0.00738973838251
4472.188,0.00302476039073
4474.117,0.00495157273738
4476.045,0.00750186081986
4477.974,0.00569354364427
4479.902,0.00399573160086
4481.831,0.00623326870239
4483.759,0.00606486680205
4485.688,0.00718054547292
4487.616,0.00619683339
4489.544,0.00511775084311
4491.473,0.00490152357498
4493.401,0.00659808128796
4495.33,0.00789107082143
4497.258,0.00952341876258
4499.187,0.0110916947704
4501.116,0.0125330582689
4503.044,0.0105166279187
4504.973,0.00908264337502
4506.901,0.00530381445099
4508.83,0.00342317800465
4510.758,0.002052488904
4512.687,0.00408379202926
4514.615,0.00720256287733
4516.543,0.0102723091626
4518.472,0.0115298236586
4520.4,0.0102691526607
4522.329,0.00693957619253
4524.257,0.0071621302482
4526.186,0.0085768357792
4528.114,0.0104621817079
4530.043,0.00788183104675
4531.972,0.00780314823153
4533.9,0.00889735166279
4535.829,0.0116549488619
4537.757,0.0124020473613
4539.686,0.0126278268381
4541.614,0.01027161997
4543.542,0.0113803745532
4545.471,0.0100225917315
4547.399,0.0126971550132
4549.328,0.011489060217
4551.256,0.0118712772116
4553.185,0.0118094382621
4555.113,0.0101827922406
4557.042,0.00986965990645
4558.971,0.00967542706965
4560.899,0.00925546989148
4562.828,0.0101615513265
4564.756,0.00826860590133
4566.685,0.00998474127712
4568.613,0.0101860911756
4570.542,0.0126928176948
4572.47,0.01494350459
4574.398,0.0167027742297
4576.327,0.0149309520965
4578.255,0.0149421905296
4580.184,0.0119402745743
4582.112,0.0096831414315
4584.041,0.0102936695368
4585.969,0.0121840695441
4587.898,0.0129725793261
4589.827,0.0139038254781
4591.755,0.0116206132895
4593.684,0.0140223620007
4595.612,0.0176024323902
4597.541,0.0160803276881
4599.469,0.0144850169541
4601.397,0.0136150262353
4603.326,0.0105426472345
4605.254,0.0133117585437
4607.183,0.01713566066
4609.111,0.0199225163798
4611.04,0.0182390487305
4612.968,0.0150079900389
4614.897,0.0113451016789
4616.825,0.0129910726593
4618.754,0.0151145897467
4620.683,0.0155206849655
4622.611,0.0160540878307
4624.54,0.0179452091929
4626.468,0.0165996572416
4628.396,0.0172977265835
4630.325,0.0158687271992
4632.253,0.0163247842827
4634.182,0.0150768817254
4636.11,0.0172519963611
4638.039,0.0190156952115
4639.967,0.0191156189408
4641.896,0.0163856813357
4643.824,0.01565161317
4645.753,0.016537028018
4647.682,0.0161485393713
4649.61,0.0134336767044
4651.539,0.0155582643375
4653.467,0.0172904624941
4655.396,0.0172389890005
4657.324,0.0158089971789
4659.252,0.0168719296472
4661.181,0.0179684349816
4663.109,0.0178012184924
4665.038,0.0174902318444
4666.966,0.017741741176
4668.895,0.016232901133
4670.823,0.0190568124385
4672.752,0.019382704024
4674.68,0.0198924951527
4676.609,0.0197646361523
4678.538,0.0204287742481
4680.466,0.0193605395918
4682.395,0.0218013563309
4684.323,0.0228579160655
4686.251,0.0231556885952
4688.18,0.020543745348
4690.108,0.0194862712846
4692.037,0.0184905626568
4693.965,0.0186468485522
4695.894,0.0192880319418
4697.822,0.021219227553
4699.751,0.0240848074396
4701.679,0.0240911847679
4703.608,0.0210429137223
4705.536,0.0201231908696
4707.465,0.0191417255543
4709.394,0.018480688825
4711.322,0.0194773623223
4713.25,0.0215163108902
4715.179,0.0203156318058
4717.107,0.0218070950075
4719.036,0.0242569080066
4720.964,0.0240149876405
4722.893,0.0201634167409
4724.821,0.0208834897035
4726.75,0.0223755961515
4728.678,0.0229553219448
4730.607,0.019931558586
4732.535,0.0195431848047
4734.464,0.0209391672716
4736.392,0.0238021282266
4738.321,0.0241122970328
4740.25,0.0249627422512
4742.178,0.025188484971
4744.106,0.0251759922075
4746.035,0.0220142203395
4747.963,0.022969257418
4749.892,0.0214355604973
4751.82,0.0219402056551
4753.749,0.0225772860517
4755.677,0.0234517749005
4757.606,0.0222871038292
4759.534,0.022834065409
4761.463,0.0235863098793
4763.391,0.0263449132996
4765.32,0.0235489969951
4767.249,0.0247799316321
4769.177,0.0259784420573
4771.105,0.028282463266
4773.034,0.0277030866637
4774.962,0.0266532350698
4776.891,0.0256841844095
4778.819,0.0265719884583
4780.748,0.0246880760501
4782.676,0.0280669527581
4784.605,0.0323223123788
4786.533,0.033863787986
4788.462,0.0314773485385
4790.39,0.029925645314
4792.319,0.0273377502918
4794.247,0.0287150923977
4796.176,0.0283463376308
4798.104,0.0300675868153
4800.033,0.0314803947695
4801.961,0.0298587109343
4803.89,0.0254149076941
4805.818,0.0277578085515
4807.747,0.0289118844362
4809.675,0.0298429422089
4811.604,0.0305180200877
4813.532,0.0311611837571
4815.461,0.0318525817153
4817.389,0.0345779936227
4819.318,0.034249322294
4821.246,0.0351800308758
4823.175,0.0344158404014
4825.103,0.035372136405
4827.032,0.0356266230484
4828.96,0.0321423228545
4830.889,0.0298919483933
4832.817,0.0317682061697
4834.746,0.0309277955947
4836.674,0.0295601435358
4838.603,0.0299632660375
4840.531,0.0300354107128
4842.46,0.0305699392592
4844.388,0.0319540492359
4846.317,0.0315445769736
4848.245,0.0318181220882
4850.174,0.031248614723
4852.102,0.0337827297538
4854.031,0.033652261011
4855.959,0.0361304783915
4857.888,0.0376929417494
4859.816,0.0365190722549
4861.745,0.0378515805482
4863.673,0.0386265279399
4865.602,0.0350360966891
4867.53,0.0332843424644
4869.458,0.0372947129743
4871.387,0.0383856891466
4873.316,0.0346240201979
4875.244,0.0324723427033
4877.173,0.0329005495162
4879.101,0.0396674365713
4881.03,0.0422068625199
4882.958,0.0405393942457
4884.887,0.0384635757147
4886.815,0.0409580676879
4888.744,0.0417525656341
4890.672,0.0405177641675
4892.601,0.0390316858568
4894.529,0.0410029736361
4896.458,0.0376473153653
4898.386,0.0359330118633
4900.315,0.0381536155041
4902.243,0.0391925291528
4904.172,0.0364684202788
4906.1,0.0390023703629
4908.029,0.0379065174641
4909.957,0.0401965246317
4911.886,0.0407111993788
4913.814,0.0400324968067
4915.743,0.0392961166298
4917.671,0.0399092870992
4919.6,0.0368544057782
4921.528,0.0370945282707
4923.457,0.0375601292925
4925.385,0.0368136354447
4927.313,0.0366567030867
4929.242,0.038979375224
4931.171,0.0408459843048
4933.099,0.0393592439098
4935.028,0.037950114406
4936.956,0.0403488145888
4938.885,0.0399862285546
4940.813,0.0426325519421
4942.742,0.0430804692023
4944.67,0.0440655895353
4946.599,0.0433933378054
4948.527,0.0434537570183
4950.456,0.0407233369784
4952.384,0.0398861922572
4954.313,0.0403917434733
4956.241,0.0407915808239
4958.169,0.0401068133575
4960.098,0.0418390046222
4962.027,0.0427835935418
4963.955,0.0429147496393
4965.884,0.0430938142672
4967.812,0.0419674724093
4969.741,0.0392929849388
4971.669,0.0425909890372
4973.598,0.0426260358564
4975.526,0.0452332158643
4977.455,0.0454225839207
4979.383,0.0450057322441
4981.312,0.0447317171002
4983.24,0.0461719218364
4985.168,0.0462543451292
4987.097,0.0465517294138
4989.025,0.0445688824973
4990.954,0.044870192882
4992.883,0.0448042408314
4994.811,0.0459733163026
4996.74,0.0466262439925
4998.668,0.0466838177591
5000.597,0.04538088088
5002.525,0.0471435183739
5004.454,0.0505965085506
5006.382,0.0517282711375
5008.311,0.048894661974
5010.239,0.0463313012874
5012.167,0.0472946904607
5014.096,0.0479676690589
5016.024,0.0464883448352
5017.953,0.0483943210535
5019.882,0.0475754541779
5021.81,0.0473911250379
5023.739,0.046963469579
5025.667,0.0479735832499
5027.596,0.0498317782087
5029.524,0.0500616243809
5031.453,0.0469295217923
5033.381,0.0495204942889
5035.31,0.053587207208
5037.238,0.0556242609559
5039.167,0.0524445687033
5041.095,0.0527386476204
5043.023,0.0507589907464
5044.952,0.049151541494
5046.88,0.0497621651673
5048.809,0.0521065932753
5050.738,0.0538131943615
5052.666,0.0536567871682
5054.595,0.0514305927975
5056.523,0.0526693364454
5058.452,0.0482884220248
5060.38,0.0492687354695
5062.309,0.0535828368084
5064.237,0.055278025785
5066.166,0.0530937173208
5068.094,0.050963913419
5070.022,0.050668238332
5071.951,0.0523530613933
5073.879,0.053308222067
5075.808,0.0557538277754
5077.736,0.0537877213457
5079.665,0.0533125299799
5081.594,0.052562930171
5083.522,0.0525097943449
5085.451,0.0509908957665
5087.379,0.0519658560231
5089.308,0.0529360594727
5091.236,0.0554597419663
5093.165,0.0542302693364
5095.093,0.0536429146412
5097.021,0.0562674011928
5098.95,0.057214364151
5100.878,0.0532143659888
5102.807,0.0542899446808
5104.735,0.0557318269116
5106.664,0.0541463615228
5108.593,0.0509042536964
5110.521,0.0522096863714
5112.45,0.0554172086783
5114.378,0.0581501511629
5116.307,0.0583458290067
5118.235,0.0594106425112
5120.164,0.0577720725398
5122.092,0.0541193520671
5124.021,0.0538520243882
5125.949,0.0574186495502
5127.877,0.0559076160371
5129.806,0.0577090298007
5131.734,0.057988358619
5133.663,0.058241082308
5135.591,0.0602430763717
5137.52,0.0606427239646
5139.449,0.0598483114783
5141.377,0.0624755414756
5143.306,0.06177904579
5145.234,0.0581144909624
5147.163,0.0561885171333
5149.091,0.0601078655248
5151.02,0.0628094933975
5152.948,0.0643845919521
5154.876,0.0622597286419
5156.805,0.061359589425
5158.733,0.0633158941584
5160.662,0.0666345101679
5162.59,0.0606940743225
5164.519,0.0574008927341
5166.447,0.0583725779477
5168.376,0.0615623893846
5170.305,0.0629742389017
5172.233,0.0648519118201
5174.162,0.0630105212133
5176.09,0.0630340663279
5178.019,0.0616738474403
5179.947,0.0621085606903
5181.875,0.0627096565064
5183.804,0.0633638660945
5185.732,0.0607872526947
5187.661,0.0666362795549
5189.589,0.0700010195455
5191.518,0.0713595067219
5193.446,0.0677440168898
5195.375,0.0636231848966
5197.304,0.0644485742904
5199.232,0.0701940233223
5201.161,0.0678542886155
5203.089,0.0679976783401
5205.018,0.0683908015309
5206.946,0.0647075301177
5208.875,0.0644540198304
5210.803,0.0643606328625
5212.731,0.0649041953447
5214.66,0.0660386931072
5216.588,0.0657215694293
5218.517,0.0674382589159
5220.445,0.0649336302987
5222.374,0.0674673525358
5224.302,0.0681869799123
5226.231,0.0707317285868
5228.16,0.0699582477969
5230.088,0.0689141119065
5232.017,0.0678478290435
5233.945,0.0624713746175
5235.874,0.0593911870652
5237.802,0.0640616813541
5239.73,0.0688022343622
5241.659,0.0762538399511
5243.587,0.076343756421
5245.516,0.0713051693576
5247.444,0.0712469976476
5249.373,0.0728363380443
5251.301,0.073930879281
5253.23,0.0769641765068
5255.158,0.0766717961736
5257.087,0.0745992359152
5259.016,0.0736129090817
5260.944,0.0740071680619
5262.873,0.0782488159672
5264.801,0.0800389747572
5266.729,0.0770964087096
5268.658,0.0771527246078
5270.586,0.0732870610992
5272.515,0.0713679828713
5274.443,0.0740003119745
5276.372,0.0741277566783
5278.3,0.0728125369591
5280.229,0.0743068807146
5282.157,0.0741325694936
5284.086,0.0786508821665
5286.014,0.0807966914163
5287.943,0.0763699368975
5289.872,0.0730424623379
5291.8,0.0728071245509
5293.729,0.0727119253742
5295.657,0.0717111663895
5297.585,0.0702542833776
5299.514,0.0747967754059
5301.442,0.0762485719425
5303.371,0.0805707052737
5305.299,0.0814897981125
5307.228,0.0811681758452
5309.156,0.0784786456907
5311.085,0.0764276229428
5313.013,0.0754254370216
5314.942,0.081682781673
5316.871,0.085656477491
5318.799,0.0858879639414
5320.728,0.0834977922866
5322.656,0.0796297359014
5324.584,0.0773668548928
5326.513,0.0811976323939
5328.441,0.0829380747177
5330.37,0.0842210038319
5332.298,0.0841125800612
5334.227,0.0841208917233
5336.155,0.0819116128943
5338.084,0.0821965103884
5340.012,0.07754178386
5341.941,0.0795735883039
5343.869,0.0823267094272
5345.798,0.0817739581706
5347.727,0.0795113491633
5349.655,0.0806726771914
5351.583,0.0840617994358
5353.512,0.0898356588221
5355.44,0.0895674135982
5357.369,0.087631929831
5359.297,0.0883736489529
5361.226,0.0917235726822
5363.154,0.0901102496715
5365.083,0.0903913060658
5367.011,0.0857502986501
5368.94,0.0816804737969
5370.868,0.080982284076
5372.797,0.0883809530154
5374.725,0.0895087587183
5376.654,0.0860938611323
5378.583,0.0808080263363
5380.511,0.084354084155
5382.439,0.0880248481479
5384.368,0.0906175592476
5386.296,0.0916447786773
5388.225,0.0927842845722
5390.153,0.0901581646343
5392.082,0.0890558824881
5394.01,0.0912242081178
5395.939,0.0946047600232
5397.867,0.0898528840411
5399.796,0.0883926453967
5401.724,0.0901329048087
5403.653,0.0890453672477
5405.582,0.0898882414563
5407.51,0.0921674756256
5409.438,0.0951510333294
5411.367,0.0991273021328
5413.295,0.0980285840309
5415.224,0.0955488522647
5417.152,0.0918630588203
5419.081,0.0917540575062
5421.009,0.0862646880715
5422.938,0.089561772787
5424.866,0.0940223394871
5426.795,0.0964660274023
5428.723,0.0994526308777
5430.652,0.0991937844022
5432.58,0.0963030926367
5434.509,0.0941281323801
5436.438,0.0938253852586
5438.366,0.0979209675344
5440.294,0.096618315981
5442.223,0.0974907556307
5444.151,0.10169239499
5446.08,0.101141159038
5448.008,0.0961797597934
5449.937,0.101268128521
5451.865,0.102160572214
5453.794,0.101206883196
5455.722,0.0994520836588
5457.651,0.101366603567
5459.579,0.103429513062
5461.508,0.105127722081
5463.436,0.1043494367
5465.365,0.102450844031
5467.293,0.103407874255
5469.222,0.107825299339
5471.15,0.104568177224
5473.079,0.103302585391
5475.007,0.101399261645
5476.936,0.102430568905
5478.864,0.103307956958
5480.793,0.109432369995
5482.721,0.109615989726
5484.65,0.103570939967
5486.578,0.101986466556
5488.507,0.107598455749
5490.435,0.104967590032
5492.364,0.103454301021
5494.292,0.107544009998
5496.221,0.114566838812
5498.149,0.112166785514
5500.078,0.110313303254
5502.006,0.107309304559
5503.935,0.10671783033
5505.863,0.107996575632
5507.792,0.108338737675
5509.72,0.109365136047
5511.649,0.114724303226
5513.577,0.11433364592
5515.506,0.112256019867
5517.434,0.109259403803
5519.363,0.111907130386
5521.291,0.113691519256
5523.22,0.11675837323
5525.148,0.114444504379
5527.077,0.113051651305
5529.005,0.113965838564
5530.934,0.116855528703
5532.862,0.116275526313
5534.791,0.116253884749
5536.719,0.120638920541
5538.648,0.119758615366
5540.576,0.116364360475
5542.505,0.114358197716
5544.433,0.110101764333
5546.362,0.112785632173
5548.29,0.113322660191
5550.219,0.116080154012
5552.147,0.116718684929
5554.076,0.114721285941
5556.004,0.112545982007
5557.933,0.117371096184
5559.861,0.120266301241
5561.79,0.120899424754
5563.718,0.118658800989
5565.646,0.118051226303
5567.575,0.117988910433
5569.504,0.120555837461
5571.432,0.122083329351
5573.361,0.126463331281
5575.289,0.127732455455
5577.218,0.128353753343
5579.146,0.127332039183
5581.075,0.12713847716
5583.003,0.126730204093
5584.932,0.130167441625
5586.86,0.126527558512
5588.789,0.126244244783
5590.717,0.125666231863
5592.646,0.125897452744
5594.574,0.124448037639
5596.502,0.123373537763
5598.431,0.125084136626
5600.36,0.12840613657
5602.288,0.129127289268
5604.217,0.128798241181
5606.145,0.126850449813
5608.074,0.129695294193
5610.002,0.133983445595
5611.931,0.133929380738
5613.859,0.131521305239
5615.788,0.131584821223
5617.716,0.130852843608
5619.645,0.132086792314
5621.573,0.129705673433
5623.501,0.129421317185
5625.43,0.13251319574
5627.358,0.13591783906
5629.287,0.136055801623
5631.216,0.134842602207
5633.144,0.134751486359
5635.073,0.135062835981
5637.001,0.135087986915
5638.93,0.139825082933
5640.858,0.140666945407
5642.787,0.141436617259
5644.715,0.140553145934
5646.644,0.14489870248
5648.572,0.145132807403
5650.5,0.146420568262
5652.429,0.148637011477
5654.357,0.146898730048
5656.286,0.145716875109
5658.215,0.145086498259
5660.143,0.142509947346
5662.072,0.145177480863
5664.0,0.146884031868
5665.929,0.1473739329
5667.857,0.147089190704
5669.786,0.14932769727
5671.714,0.148035520984
5673.643,0.149703651802
5675.571,0.148453010852
5677.5,0.150207061007
5679.428,0.152558098931
5681.356,0.151505660568
5683.285,0.151104858348
5685.213,0.156107440523
5687.142,0.158438248348
5689.071,0.158786910855
5690.999,0.156117989763
5692.928,0.154192987696
5694.856,0.150897581394
5696.785,0.15505541108
5698.713,0.159274964851
5700.642,0.159988646702
5702.57,0.157211177784
5704.499,0.157914737693
5706.427,0.160806006083
5708.355,0.163282899755
5710.284,0.157428438841
5712.212,0.157074396038
5714.141,0.159988040212
5716.069,0.164451935712
5717.998,0.165638325538
5719.927,0.169836675151
5721.855,0.172860553376
5723.784,0.171971894728
5725.712,0.167185636309
5727.641,0.168679520873
5729.569,0.169384284572
5731.498,0.171658252391
5733.426,0.168816353161
5735.354,0.1710483951
5737.283,0.174193451752
5739.211,0.177379717523
5741.14,0.173237344128
5743.068,0.172292258989
5744.997,0.175158086985
5746.926,0.177357929849
5748.854,0.176985715336
5750.783,0.179175050311
5752.711,0.177738933865
5754.64,0.177367128273
5756.568,0.181667101624
5758.497,0.185024516876
5760.425,0.180758479366
5762.354,0.185785854093
5764.282,0.184799642539
5766.21,0.185062679764
5768.139,0.188571170617
5770.067,0.189821669132
5771.996,0.18379488711
5773.924,0.182676543562
5775.853,0.188387266479
5777.782,0.192240564954
5779.71,0.185923798278
5781.639,0.184517229814
5783.567,0.184574455768
5785.496,0.189757629361
5787.424,0.192875743179
5789.353,0.193191269309
5791.281,0.191711862382
5793.209,0.194379065087
5795.138,0.196211062919
5797.066,0.203208103985
5798.995,0.202046571037
5800.923,0.201138284186
5802.852,0.202900310596
5804.78,0.205958625474
5806.709,0.201376368047
5808.638,0.199362336087
5810.566,0.20070822804
5812.495,0.205887482426
5814.423,0.206295213328
5816.352,0.20789270191
5818.28,0.206333036215
5820.208,0.209356409031
5822.137,0.211779334332
5824.065,0.211778318922
5825.994,0.211496535659
5827.922,0.216354635509
5829.851,0.217907657389
5831.779,0.223439112136
5833.708,0.222346806282
5835.637,0.222150620733
5837.565,0.218556803249
5839.494,0.219621100319
5841.422,0.219802711743
5843.351,0.22214489584
5845.279,0.221871460996
5847.208,0.228015777915
5849.136,0.22835234739
5851.064,0.22664471665
5852.993,0.227465664428
5854.921,0.232867849627
5856.85,0.234792332503
5858.778,0.231574538471
5860.707,0.234473025004
5862.635,0.245431567775
5864.564,0.246831487829
5866.493,0.239533899084
5868.421,0.231531211233
5870.35,0.229750167704
5872.278,0.23365353372
5874.207,0.239436778071
5876.135,0.241081251206
5878.063,0.246586925558
5879.992,0.250563424092
5881.92,0.250977739081
5883.849,0.245213337254
5885.777,0.245050219163
5887.706,0.246803915533
5889.634,0.249453548423
5891.563,0.249158835908
5893.491,0.253665851888
5895.42,0.256024746607
5897.349,0.261910648484
5899.277,0.258119694366
5901.206,0.257641155822
5903.134,0.26105625649
5905.063,0.264044099133
5906.991,0.261425144501
5908.919,0.260838949487
5910.848,0.265721708646
5912.776,0.268743565239
5914.705,0.265897438961
5916.633,0.267743096588
5918.562,0.266115821104
5920.49,0.270000165406
5922.419,0.27192461612
5924.347,0.273545183463
5926.276,0.273774762688
5928.205,0.275936778071
5930.133,0.278385134576
5932.062,0.279074377659
5933.99,0.273485246685
5935.918,0.278070182774
5937.847,0.283287728697
5939.775,0.292891907042
5941.704,0.291361577975
5943.632,0.292692551207
5945.561,0.297005968407
5947.489,0.298040248844
5949.418,0.294688457403
5951.346,0.293956534924
5953.275,0.293587596372
5955.204,0.295910308483
5957.132,0.296476562859
5959.061,0.297281682181
5960.989,0.29439378624
5962.917,0.302984874521
5964.846,0.311651484521
5966.774,0.313284425167
5968.703,0.307701248817
5970.631,0.308526014721
5972.56,0.313208200472
5974.488,0.319374148847
5976.417,0.317498649183
5978.345,0.320931135881
5980.274,0.324478161786
5982.202,0.324410951729
5984.131,0.319007020575
5986.06,0.324378715896
5987.988,0.330537312884
5989.917,0.333412302546
5991.845,0.330436654016
5993.773,0.334141872582
5995.702,0.339195266626
5997.63,0.341379988605
5999.559,0.337743500914
6001.487,0.340951853009
6003.416,0.344063672202
6005.344,0.344857796605
6007.273,0.345724810013
6009.201,0.351025109582
6011.13,0.350575907667
6013.058,0.353585528794
6014.987,0.357688053077
6016.916,0.359101173465
6018.844,0.356930285877
6020.772,0.36554185696
6022.701,0.363946376226
6024.629,0.362508683826
6026.558,0.361606287274
6028.486,0.36396623416
6030.415,0.36909626182
6032.343,0.374481221801
6034.272,0.368119891935
6036.2,0.36668664253
6038.129,0.370192146881
6040.057,0.378104490779
6041.986,0.378917705816
6043.915,0.381883393217
6045.843,0.381652656148
6047.771,0.386109843507
6049.7,0.39451055843
6051.628,0.399797974693
6053.557,0.395779596225
6055.485,0.394691664446
6057.414,0.398605694568
6059.342,0.407075687125
6061.271,0.404496604578
6063.199,0.402234830872
6065.128,0.406044223188
6067.056,0.413575971991
6068.985,0.4112727043
6070.913,0.410551868631
6072.842,0.412670575154
6074.771,0.420508784908
6076.699,0.424082537699
6078.627,0.423579257142
6080.556,0.424857617415
6082.484,0.428846613308
6084.413,0.426495373221
6086.341,0.432817492626
6088.27,0.436613018388
6090.198,0.439342611396
6092.127,0.440463376308
6094.055,0.448392541099
6095.984,0.445584490411
6097.912,0.443117842735
6099.841,0.44551991307
6101.769,0.453998846751
6103.698,0.455945659465
6105.626,0.459228007866
6107.555,0.456281162989
6109.483,0.460688599836
6111.412,0.462632527131
6113.34,0.461796600902
6115.269,0.469211614273
6117.197,0.477910170644
6119.126,0.476437834833
6121.054,0.478094649109
6122.983,0.475175201933
6124.911,0.479248587155
6126.84,0.485425144501
6128.768,0.487655775893
6130.697,0.488323980225
6132.625,0.49451721603
6134.554,0.499011288974
6136.482,0.502081361477
6138.411,0.497373583709
6140.339,0.498068174926
6142.268,0.503284645709
6144.196,0.508897530853
6146.125,0.509932610753
6148.053,0.513964217123
6149.982,0.515076596859
6151.91,0.521420945021
6153.839,0.522643788537
6155.767,0.530373271275
6157.696,0.540161362947
6159.624,0.543303505233
6161.553,0.53924954743
6163.481,0.54459865102
6165.41,0.542736071419
6167.338,0.540543959457
6169.267,0.542862244195
6171.195,0.557806038705
6173.124,0.563059708885
6175.052,0.560635029819
6176.981,0.558798460803
6178.909,0.563333085837
6180.838,0.571571959512
6182.766,0.573205995516
6184.695,0.56677329287
6186.623,0.57646299909
6188.552,0.583926685535
6190.48,0.587982669105
6192.409,0.590994434081
6194.337,0.595588738594
6196.266,0.590420311423
6198.194,0.589295945251
6200.123,0.597257279573
6202.051,0.606064878748
6203.979,0.602558480744
6205.908,0.60620873988
6207.837,0.612500421326
6209.765,0.619922501218
6211.694,0.624160378321
6213.622,0.631212224897
6215.551,0.631172775516
6217.479,0.628808473852
6219.408,0.63159263437
6221.336,0.644567931412
6223.265,0.651361086351
6225.193,0.653919888259
6227.122,0.652623223032
6229.05,0.653777087564
6230.979,0.651175978424
6232.907,0.660256728817
6234.835,0.665887142424
6236.764,0.674037956131
6238.693,0.675043529401
6240.621,0.680828942411
6242.55,0.682964796045
6244.478,0.683998952427
6246.407,0.685893014344
6248.335,0.691381380774
6250.264,0.694145318545
6252.192,0.696522233351
6254.121,0.69647733016
6256.049,0.705491862933
6257.978,0.711284985711
6259.906,0.711698776913
6261.834,0.714331804857
6263.763,0.722320718047
6265.691,0.723866760703
6267.62,0.733308147175
6269.549,0.740048509966
6271.477,0.746615145695
6273.406,0.748878495355
6275.334,0.750210079671
6277.263,0.757718827821
6279.191,0.771957052278
6281.12,0.775174389146
6283.048,0.772959577479
6284.977,0.771589395165
6286.905,0.777526198506
6288.833,0.777809427695
6290.762,0.776476237101
6292.69,0.784275069149
6294.619,0.799216988137
6296.548,0.79980999513
6298.476,0.798843984727
6300.405,0.808782279022
6302.333,0.815902114029
6304.262,0.816563117172
6306.19,0.823300295893
6308.119,0.826048356965
6310.047,0.827895678303
6311.976,0.826259087693
6313.904,0.830217794951
6315.833,0.832134972846
6317.761,0.844894784191
6319.689,0.851541682824
6321.618,0.861998621615
6323.546,0.868511615192
6325.475,0.878123567628
6327.404,0.877406651167
6329.332,0.874187170911
6331.261,0.871402176011
6333.189,0.881043143453
6335.118,0.889314147745
6337.046,0.898467433355
6338.975,0.901580052011
6340.903,0.909777110537
6342.832,0.915711127243
6344.76,0.92212552034
6346.688,0.92290145925
6348.617,0.925676221938
6350.545,0.924143283129
6352.474,0.92827365998
6354.402,0.939498313776
6356.331,0.953529943119
6358.26,0.953767875357
6360.188,0.958620452478
6362.117,0.968986055338
6364.045,0.979356340112
6365.974,0.972930896961
6367.902,0.97307173116
6369.831,0.989323888332
6371.759,1.00633506152
6373.688,1.00295726455
6375.616,1.00602441625
6377.544,1.01374070095
6379.473,1.01831423274
6381.401,1.02105196098
6383.33,1.02544260267
6385.259,1.03240613933
6387.187,1.04242189266
6389.116,1.04564899948
6391.044,1.04839681777
6392.973,1.05022760032
6394.901,1.05728320805
6396.83,1.06273355449
6398.758,1.06459810886
6400.687,1.07008601215
6402.615,1.07601588773
6404.543,1.08217684083
6406.472,1.09094221258
6408.4,1.09336313417
6410.329,1.10305153782
6412.257,1.11285947824
6414.186,1.11968806227
6416.115,1.12307698281
6418.043,1.13273772089
6419.972,1.13770077098
6421.9,1.14265289966
6423.829,1.14203475368
6425.757,1.1502033991
6427.686,1.15800445678
6429.614,1.16508711394
6431.542,1.17128037731
6433.471,1.17502606067
6435.399,1.18097247824
6437.328,1.19989393786
6439.256,1.20462574548
6441.185,1.20500556408
6443.113,1.20924563282
6445.042,1.21647299284
6446.971,1.22041124578
6448.899,1.22869752258
6450.828,1.23489516463
6452.756,1.2426335747
6454.685,1.24589905627
6456.613,1.25291426445
6458.542,1.2606643035
6460.47,1.26947132959
6462.398,1.27533871057
6464.327,1.28947657664
6466.255,1.29497828125
6468.184,1.29728390138
6470.112,1.29563175524
6472.041,1.2987955763
6473.97,1.29849422457
6475.898,1.31268331603
6477.827,1.32890161087
6479.755,1.33939287651
6481.684,1.34060740377
6483.612,1.34621234482
6485.541,1.35549716972
6487.469,1.36590247007
6489.397,1.37210483078
6491.326,1.38255720758
6493.254,1.38749898918
6495.183,1.39230648392
6497.111,1.40188286943
6499.04,1.41422208081
6500.968,1.42151516224
6502.897,1.42887452101
6504.826,1.42813215037
6506.754,1.43915306966
6508.683,1.45171922847
6510.611,1.46201462926
6512.54,1.46447007296
6514.468,1.46059285767
6516.396,1.46193011266
6518.325,1.47947566829
6520.253,1.49498061899
6522.182,1.50642206459
6524.11,1.5116031055
6526.039,1.51563864762
6527.967,1.52416391664
6529.896,1.54001208338
6531.824,1.53908574428
6533.753,1.54394302859
6535.682,1.54889687015
6537.61,1.55337370041
6539.539,1.56165138344
6541.467,1.57697058526
6543.396,1.58623120112
6545.324,1.59872702002
6547.252,1.60594740083
6549.181,1.61582099372
6551.109,1.61481014124
6553.038,1.61888247429
6554.966,1.6287437674
6556.895,1.63555064646
6558.823,1.64521014859
6560.752,1.65960988486
6562.68,1.6590279123
6564.609,1.66482838187
6566.538,1.67831334369
6568.466,1.69425960505
6570.395,1.69807759389
6572.323,1.7185498084
6574.251,1.72674147285
6576.18,1.72879405548
6578.108,1.72678608291
6580.037,1.7406867744
6581.965,1.75903910148
6583.894,1.77780784439
6585.822,1.78119293578
6587.751,1.77709408259
6589.679,1.77915785174
6591.608,1.79959542192
6593.537,1.81371104913
6595.465,1.82503289286
6597.394,1.83565438832
6599.322,1.84219122336
6601.25,1.83477790081
6603.179,1.84131402369
6605.107,1.85758393446
6607.036,1.86950663922
6608.964,1.87616813082
6610.893,1.88510925999
6612.821,1.89642197881
6614.75,1.91516295268
6616.678,1.92054107128
6618.607,1.92887773724
6620.535,1.94450487029
6622.464,1.95673459195
6624.393,1.95920514965
6626.321,1.97227513485
6628.25,1.97529786442
6630.178,1.98238267646
6632.106,1.99698885346
6634.035,2.00381725371
6635.963,1.99756318058
6637.892,2.01977621918
6639.82,2.0336979315
6641.749,2.03511261406
6643.677,2.04422861344
6645.606,2.0607065069
6647.534,2.07439211931
6649.463,2.08245465113
6651.391,2.08311428742
6653.32,2.09683158202
6655.249,2.10343146853
6657.177,2.11137766557
6659.105,2.1220936507
6661.034,2.13840532792
6662.962,2.14400419948
6664.891,2.14674549498
6666.819,2.16007170129
6668.748,2.18178105456
6670.676,2.18658754583
6672.605,2.19866271836
6674.533,2.2149455321
6676.462,2.22255306668
6678.39,2.23092531772
6680.319,2.25157033486
6682.248,2.26491718322
6684.176,2.27940325575
6686.104,2.29137707883
6688.033,2.29521646849
6689.961,2.29341965807
6691.89,2.30384633028
6693.818,2.31268065666
6695.747,2.33162085634
6697.675,2.3415780199
6699.604,2.35383792167
6701.532,2.35622173759
6703.461,2.35913264475
6705.389,2.36781468623
6707.318,2.39156288652
6709.246,2.410121818
6711.175,2.41364983597
6713.104,2.41487630188
6715.032,2.43049457376
6716.96,2.44316918749
6718.889,2.45828106439
6720.817,2.47350879456
6722.746,2.48993543415
6724.674,2.4939705384
6726.603,2.5032183362
6728.531,2.51251167492
6730.46,2.52034898872
6732.388,2.52447853395
6734.317,2.54323020409
6736.245,2.55283924354
6738.174,2.56241745311
6740.102,2.56999776242
6742.031,2.58654135155
6743.959,2.58842316882
6745.888,2.60839015649
6747.816,2.62349782215
6749.745,2.63989369894
6751.673,2.65532780754
6753.602,2.66645795466
6755.53,2.67418281981
6757.459,2.69785786093
6759.387,2.71171760565
6761.316,2.71401556656
6763.244,2.71491343282
6765.173,2.73161969437
6767.101,2.74580841366
6769.03,2.75263615688
6770.958,2.75064269961
6772.887,2.77316526378
6774.815,2.78981934885
6776.744,2.80745303842
6778.672,2.82224491146
6780.601,2.83464101339
6782.529,2.84018340332
6784.458,2.85875150933
6786.386,2.8735325161
6788.315,2.8796592678
6790.243,2.88722453893
6792.172,2.90485686849
6794.1,2.91151377466
6796.029,2.92310602538
6797.957,2.92502701635
6799.886,2.9442176516
6801.814,2.97128585869
6803.743,2.98859483749
6805.671,2.98881285206
6807.6,3.00473715115
6809.528,3.02098077612
6811.457,3.03916911866
6813.385,3.04657210332
6815.313,3.05052425498
6817.242,3.0575067403
6819.171,3.07120903669
6821.099,3.08588281889
6823.028,3.11242017772
6824.956,3.12748032126
6826.885,3.14051456034
6828.813,3.14746446983
6830.742,3.15828006028
6832.67,3.16485279766
6834.599,3.17795825331
6836.527,3.19927736784
6838.456,3.2209804545
6840.384,3.2283205848
6842.313,3.24484484897
6844.241,3.25718994146
6846.17,3.27824004117
6848.098,3.28197234041
6850.027,3.29176714481
6851.955,3.30695658087
6853.884,3.32988785459
6855.812,3.33513343687
6857.741,3.35263754905
6859.669,3.36143293238
6861.598,3.37438694945
6863.526,3.38824045468
6865.455,3.40593593266
6867.383,3.4172447093
6869.312,3.42759605966
6871.24,3.43236936126
6873.168,3.45548883049
6875.097,3.4681083135
6877.026,3.47566135835
6878.954,3.48992107367
6880.883,3.51866343512
6882.811,3.53919572149
6884.74,3.54004503644
6886.668,3.5410379791
6888.597,3.56401836928
6890.525,3.57871857052
6892.454,3.59062924198
6894.382,3.62098353289
6896.311,3.64154954375
6898.239,3.6473628369
6900.167,3.67013444768
6902.096,3.68579846172
6904.024,3.68290876929
6905.953,3.69271331428
6907.882,3.71370418937
6909.81,3.71686078311
6911.739,3.73511730976
6913.667,3.7405402902
6915.596,3.750176856
6917.524,3.77149702728
6919.453,3.79011427731
6921.381,3.79732663132
6923.31,3.82804058885
6925.238,3.84311837571
6927.167,3.84479086223
6929.095,3.8470780166
6931.023,3.87518779118
6932.952,3.90892983101
6934.881,3.92615890942
6936.809,3.93271919539
6938.738,3.94887437398
6940.666,3.9602913998
6942.595,3.97263557336
6944.523,3.97842502045
6946.452,3.99963551823
6948.38,4.00978888654
6950.309,4.03432129237
6952.237,4.05370961102
6954.166,4.06159884399
6956.094,4.07209850859
6958.022,4.0795956829
6959.951,4.0865999467
6961.879,4.11353120204
6963.808,4.13533964327
6965.737,4.16661464948
6967.665,4.16794276945
6969.594,4.16705922461
6971.522,4.20194752947
6973.451,4.23915345102
6975.379,4.23687093721
6977.308,4.23840733117
6979.236,4.25770095476
6981.165,4.27540497873
6983.093,4.27782808781
6985.021,4.29128112623
6986.95,4.31558320392
6988.878,4.34822713029
6990.807,4.36751404574
6992.735,4.37384400357
6994.664,4.38801426169
6996.593,4.39852265606
6998.521,4.40049218456
7000.45,4.42143426482
7002.378,4.44793045588
7004.307,4.4540457532
7006.235,4.45744567784
7008.164,4.4963397076
7010.092,4.52852054253
7012.021,4.53286677449
7013.949,4.52105530081
7015.877,4.54072177757
7017.806,4.55511873409
7019.734,4.55260883269
7021.663,4.57381978993
7023.592,4.60671173373
7025.52,4.61367712708
7027.449,4.62754257832
7029.377,4.64745008868
7031.306,4.66009723128
7033.234,4.66202200822
7035.163,4.7079085855
7037.091,4.72300484273
7039.02,4.74070721263
7040.948,4.77149721107
7042.876,4.80401005302
7044.805,4.81270182774
7046.733,4.82152078145
7048.662,4.81275406853
7050.59,4.82070643154
7052.519,4.84287412587
7054.448,4.87988661404
7056.376,4.91057870119
7058.305,4.91755038916
7060.233,4.91540194628
7062.162,4.9397480404
7064.09,4.95426905158
7066.019,4.94444787407
7067.947,4.93098385452
7069.875,4.95930488959
7071.804,5.01628843167
7073.732,5.04029066466
7075.661,5.04634710493
7077.589,5.07104266561
7079.518,5.08483350027
7081.446,5.08494942246
7083.375,5.05975208366
7085.304,5.08374448416
7087.232,5.11704994349
7089.161,5.13353308584
7091.089,5.16971744025
7093.018,5.20754354318
7094.946,5.2037488031
7096.875,5.19010219347
7098.803,5.20360292401
7100.731,5.22054782537
7102.66,5.24957496118
7104.588,5.25993596023
7106.517,5.25341256903
7108.445,5.28902075848
7110.374,5.31106430626
7112.302,5.32490177628
7114.231,5.33235998824
7116.16,5.36412289681
7118.088,5.36897081499
7120.017,5.36952827987
7121.945,5.41079639414
7123.874,5.45879709253
7125.802,5.47824900067
7127.73,5.48812457844
7129.659,5.49118422576
7131.587,5.52134278599
7133.516,5.52300709409
7135.444,5.54180201796
7137.373,5.55270770885
7139.301,5.54046934931
7141.23,5.51526902401
7143.159,5.51779326062
7145.087,5.5623292962
7147.016,5.60362010788
7148.944,5.63878372219
7150.873,5.64913727797
7152.801,5.67759734615
7154.729,5.72137481047
7156.658,5.73133162107
7158.586,5.70855615081
7160.515,5.6994972662
7162.443,5.74460363159
7164.372,5.7663373184
7166.3,5.75364739991
7168.229,5.74274809553
7170.157,5.78992897641
7172.086,5.86074305064
7174.015,5.87877742757
7175.943,5.86565896915
7177.872,5.82894209864
7179.8,5.82102897365
7181.729,5.829571699
7183.657,5.87230756366
7185.585,5.89555338485
7187.514,5.92562087978
7189.442,6.00386288744
7191.371,6.06169427419
7193.299,6.02873134356
7195.228,6.00242899938
7197.156,6.00313353795
7199.085,6.0182575926
7201.013,6.09588484052
7202.942,6.09970710236
7204.871,6.04449501484
7206.799,6.08761453002
7208.728,6.1714908705
7210.656,6.14771032778
7212.584,6.15952386904
7214.513,6.18727140402
7216.441,6.18837838508
7218.37,6.20085258631
7220.298,6.23760047049
7222.227,6.25123545574
7224.155,6.26882217913
7226.084,6.29671283644
7228.012,6.31222858219
7229.941,6.27853106421
7231.87,6.22766723027
7233.798,6.33869807853
7235.727,6.40474133226
7237.655,6.35311125405
7239.583,6.35320140044
7241.512,6.31518278305
7243.44,6.35073909927
7245.369,6.39948568777
7247.297,6.37607335765
7249.226,6.35512705035
7251.154,6.34948812292
7253.083,6.37563599607
7255.011,6.52363871608
7256.94,6.59584872683
7258.868,6.55814507044
7260.797,6.52577245619
7262.726,6.48786810693
7264.654,6.45512185843
7266.583,6.49598987346
7268.511,6.48803116988
7270.439,6.51445223896
7272.368,6.58255424864
7274.296,6.60104597374
7276.225,6.54629151007
7278.153,6.51421318104
7280.082,6.5396046424
7282.01,6.58571543699
7283.939,6.60549030076
7285.867,6.59746313739
7287.796,6.61391540391
7289.724,6.70587817833
7291.653,6.78790674765
7293.582,6.80450443381
7295.51,6.84016307214
7297.438,6.82581261314
7299.367,6.76163243064
7301.295,6.83895289599
7303.224,6.92361997004
7305.152,6.7752433401
7307.081,6.67024889959
7309.009,6.73382107643
7310.938,6.79901230438
7312.866,6.84637214559
7314.795,6.8074606563
7316.723,6.79169643366
7318.652,6.85078991573
7320.581,6.89774327118
7322.509,6.93044315999
7324.438,6.94288703675
7326.366,6.89665195777
7328.294,6.82984558411
7330.223,6.84511873409
7332.151,6.8866803525
7334.08,6.89023943468
7336.008,6.99675749612
7337.937,7.07457877471
7339.865,7.06159732777
7341.794,7.0800088768
7343.722,6.91732915836
7345.651,6.83797989396
7347.579,6.97631848047
7349.508,7.27158846016
7351.437,7.35412864009
7353.365,7.17697748638
7355.293,7.08925172987
7357.222,7.19727356349
7359.15,7.19385962526
7361.079,7.09724259577
7363.007,7.12803842938
7364.936,7.13512976117
7366.864,7.09398101504
7368.793,7.10761701111
7370.721,7.07009208531
7372.65,7.16513541255
7374.578,7.34809958373
7376.507,7.36721649835
7378.435,7.2202661294
7380.364,7.09533890814
7382.292,7.23087583507
7384.221,7.42611912004
7386.149,7.26846255847
7388.078,7.15157026548
7390.006,7.14932790862
7391.935,7.14627299376
7393.863,7.26728151218
7395.792,7.38222288487
7397.72,7.27161359271
7399.649,7.14378487085
7401.577,7.20772594948
7403.506,7.4130512943
7405.434,7.38273683872
7407.363,7.27465371291
7409.291,7.25919664042
7411.22,7.26654334102
7413.148,7.29521650754
7415.077,7.33572095053
7417.005,7.47337558237
7418.934,7.55022418055
7420.862,7.39065777455
7422.791,7.52440707387
7424.719,7.65394710677
7426.648,7.41083540244
7428.576,7.41704539482
7430.505,7.52840425278
7432.433,7.46845130165
7434.362,7.35125663692
7436.29,7.3204172923
7438.219,7.39502385525
7440.147,7.39209634912
7442.076,7.45945756871
7444.004,7.70540557603
7445.933,7.78012783143
7447.861,7.63503267692
7449.79,7.64381390882
7451.718,7.68620742858
7453.646,7.63407672091
7455.575,7.60390929307
7457.504,7.59649174347
7459.432,7.58681538829
7461.361,7.5823700045
7463.289,7.64630377769
7465.218,7.62388420646
7467.146,7.62396828795
7469.075,7.89722302271
7471.003,7.9278263878
7472.932,7.94298678588
7474.86,7.92539399759
7476.789,7.81462283708
7478.717,7.74085952418
7480.646,7.72251547008
7482.574,7.66185917499
7484.503,7.62123789089
7486.431,7.69919870799
7488.36,7.94286824476
7490.288,7.93180165039
7492.217,7.84010458267
7494.145,7.77443142534
7496.074,7.71563319335
7498.002,7.9152247319
7499.931,7.9715087895
7501.859,7.86059197964
7503.788,8.06434164653
7505.716,7.90939278461
7507.645,7.65107786038
7509.573,7.67303581044
7511.501,7.81365557832
7513.43,7.86814346232
7515.359,7.71943023074
7517.287,7.75011763138
7519.216,7.89047628718
7521.144,7.76335692822
7523.073,7.56355523189
7525.001,7.51950879869
7526.93,7.62030527554
7528.858,7.65530651609
7530.787,7.73714215745
7532.715,7.74033886219
7534.644,7.75351709657
7536.572,7.64645696222
7538.5,7.65311957031
7540.429,7.67417596464
7542.357,7.5353423541
7544.286,7.52943271183
7546.215,7.57093551915
7548.143,7.68375440853
7550.072,7.64589903789
7552.0,7.56415248615
7553.929,7.6776254652
7555.857,7.75108204148
7557.786,7.81847863963
7559.714,7.88672386352
7561.643,7.73016550729
7563.571,7.61690411034
7565.5,7.56846572875
7567.428,7.58447020391
7569.356,7.54436140338
7571.285,7.58348001801
7573.214,7.59473448628
7575.142,7.50985059225
7577.071,7.5674252318
7578.999,7.55046158441
7580.928,7.5497929298
7582.856,7.75311364326
7584.785,7.80035999743
7586.713,7.68936030067
7588.642,7.64550679544
7590.57,7.72086315393
7592.499,7.97291382336
7594.427,7.82442660099
7596.355,7.64220560911
7598.284,7.60539234353
7600.212,7.5361034524
7602.141,7.73895000138
7604.07,7.85209717615
7605.998,7.52904648833
7607.927,7.31823631953
7609.855,7.34661566029
7611.784,7.56185163982
7613.712,7.86969828069
7615.641,7.98859492938
7617.569,7.9823634342
7619.498,7.73656029516
7621.426,7.54311254055
7623.354,7.52652689229
7625.283,7.48362732143
7627.211,7.405705191
7629.14,7.50366982164
7631.068,7.84261039486
7632.997,7.98095559762
7634.926,7.91033298108
7636.854,7.73762473007
7638.783,7.68969391581
7640.711,7.74032847835
7642.64,7.83840549332
7644.568,7.84562547439
7646.497,7.70134724277
7648.425,7.61956223409
7650.354,7.62533491082
7652.282,7.5368063369
7654.21,7.41928701653
7656.139,7.46496931715
7658.067,7.55155753839
7659.996,7.50488385727
7661.925,7.69151310844
7663.853,9.7174618509
7665.782,7.8964440973
7667.71,7.7932648521
7669.639,7.68166656865
7671.567,7.49170530127
7673.496,7.45939471435
7675.424,7.55248091856
7677.353,7.61658960881
7679.281,7.52042960587
7681.209,7.54561844463
7683.138,7.75616033375
7685.066,7.65656764655
7686.995,7.60189685085
7688.923,7.44883270081
7690.852,7.47439926302
7692.781,7.46299009401
7694.709,7.38381560883
7696.638,7.4311405769
7698.566,7.46236623692
7700.495,7.36158317635
7702.423,7.50826820617
7704.352,7.83389187947
7706.28,7.75577879676
7708.208,7.8022854176
7710.137,7.78324307361
7712.065,7.37945485789
7713.994,7.26105093592
7715.922,7.31869513798
7717.851,7.43626982347
7719.779,7.44537442452
7721.708,7.47962072356
7723.637,7.54305152403
7725.565,7.43252649716
7727.494,7.24104004668
7729.422,7.3393701791
7731.351,7.26989984654
7733.279,7.05092922452
7735.208,7.07249254294
7737.136,7.47684860737
7739.064,7.92211100595
7740.993,7.52035485146
7742.921,7.36167957141
7744.85,7.36735479632
7746.778,7.81156236274
7748.707,7.68085690525
7750.635,7.07734441249
7752.564,6.92753720261
7754.493,6.88687171829
7756.421,6.9077520469
7758.35,7.00432974647
7760.278,7.08841569337
7762.207,7.03050509543
7764.135,7.01918997822
7766.063,7.04551166573
7767.992,7.08726244452
7769.92,7.47912909955
7771.849,7.44546392766
7773.777,7.32365199452
7775.706,7.27081899966
7777.634,7.0906554313
7779.563,7.08426215965
7781.492,7.17942315503
7783.42,7.21374889499
7785.349,7.05909261829
7787.277,6.88465853726
7789.206,6.9073910019
7791.134,6.79476867023
7793.063,6.73610023616
7794.991,6.81200634057
7796.919,7.03253122961
7798.848,7.0939521149
7800.776,7.01195387005
7802.705,7.01083503487
7804.633,7.0005828823
7806.562,7.18035774606
7808.49,7.35350450732
7810.419,7.07298425884
7812.348,6.83931481396
7814.276,6.91007885282
7816.205,7.06487246262
7818.133,7.28894430405
7820.062,7.23962706413
7821.99,6.84355899948
7823.918,6.67030352958
7825.847,6.66965757239
7827.775,6.71326521967
7829.704,6.88195805115
7831.632,7.20835591741
7833.561,7.47346402874
7835.489,7.19822694651
7837.418,6.79770798453
7839.346,6.75159562776
7841.275,6.7520371245
7843.204,6.72490430332
7845.132,6.89706138408
7847.061,6.74840347169
7848.989,6.75320153828
7850.917,6.94632105345
7852.846,6.66924640012
7854.774,6.36673406357
7856.703,6.4385490751
7858.631,6.77862699981
7860.56,6.88343430157
7862.488,6.99919902962
7864.417,6.91230623122
7866.345,6.7409648328
7868.274,6.7323077015
7870.203,6.61821872215
7872.131,6.580977468
7874.06,6.5864542514
7875.988,6.67084404032
7877.917,6.67217321706
7879.845,6.64264333826
7881.773,6.87424525146
7883.702,6.9214896759
7885.63,6.78849012617
7887.559,6.58962711008
7889.487,6.40312159194
7891.416,6.52109136855
7893.344,6.82829549819
7895.273,6.80057350928
7897.201,6.56884005219
7899.13,6.4818530182
7901.059,6.38690999145
7902.987,6.34460032346
7904.916,6.39219021714
7906.844,6.46224383632
7908.772,6.40510619079
7910.701,6.65158303851
7912.629,8.55341367174
7914.558,6.52182062615
7916.486,6.36082005642
7918.415,6.2786756568
7920.343,6.34773118734
7922.272,6.42205793812
7924.2,6.46201516224
7926.129,6.44772696029
7928.057,6.52753536477
7929.986,6.52155790596
7931.915,6.56302616175
7933.843,6.57407837498
7935.771,6.37128604247
7937.7,6.18738048023
7939.628,5.97225357691
7941.557,5.95573138031
7943.485,6.12448582561
7945.414,6.23119970962
7947.342,6.30847165581
7949.271,6.40292034772
7951.199,6.37904423697
7953.128,6.29877246538
7955.056,6.24059634452
7956.985,6.28774262794
7958.914,6.37298145613
7960.842,6.49824210875
7962.771,6.25737896401
7964.699,5.9607447047
7966.627,6.0218087261
7968.556,6.26215396561
7970.484,6.16736862612
7972.413,6.13301816712
7974.341,6.36050380894
7976.27,6.55887694697
7978.198,6.43710457348
7980.127,6.17107312792
7982.055,6.30669882286
7983.984,6.71572016945
7985.912,6.31680495851
7987.841,6.24834479843
7989.77,6.3959798572
7991.698,6.39907782362
7993.626,6.33630717771
7995.555,6.21546659254
7997.483,6.15493007912
7999.412,6.14739228839
8001.34,6.23902112605
8003.269,6.13675069608
8005.197,6.04045855196
8007.126,6.1026093381
8009.054,5.84277717946
8010.983,5.8245680233
8012.911,5.88036344339
8014.84,5.84090082979
8016.768,5.82663050091
8018.697,5.91344486919
8020.625,6.16995240896
8022.554,6.17736099905
8024.482,6.01993256021
8026.411,5.84307013223
8028.339,5.92674628525
8030.268,6.0264740542
8032.196,5.93093754078
8034.125,6.14540557603
8036.053,7.9742981355
8037.982,5.71136065905
8039.91,5.71677105024
8041.839,5.77884772521
8043.767,5.80091553256
8045.696,5.72270012773
8047.624,5.84258397581
8049.553,5.73344730434
8051.481,5.71193144832
8053.41,5.82895923656
8055.338,5.62430714095
8057.267,5.60988252483
8059.195,5.61594898137
8061.124,5.57332430644
8063.052,5.91884349816
8064.981,7.8894529741
8066.909,7.7627820038
8068.838,5.74554162263
8070.766,5.6876620843
8072.695,5.61613501741
8074.623,5.48328240354
8076.552,5.50254616212
8078.48,5.67615449859
8080.409,5.78527504296
8082.337,5.77001632008
8084.266,5.67948224181
8086.194,5.83720060098
8088.123,5.84890299845
8090.051,5.65936494123
8091.979,5.83220772263
8093.908,5.85964139934
8095.837,5.57555549838
8097.765,5.41889831194
8099.694,5.43584900251
8101.622,5.52251009437
8103.551,5.57351567224
8105.479,5.43804187534
8107.408,5.56565887726
8109.336,6.06187764535
8111.265,5.95960009373
8113.193,5.56012815306
8115.122,5.60366099997
8117.05,5.63026424561
8118.979,5.67068065574
8120.907,5.69808465122
8122.836,5.68204452184
8124.764,5.86827794676
8126.693,5.71423546493
8128.621,5.37980528932
8130.55,5.38116593919
8132.478,5.68979145953
8134.407,5.75994629812
8136.335,5.9926303355
8138.264,5.79347064499
8140.192,5.60365874861
8142.121,5.62808474311
8144.049,5.720933084
8145.978,5.43137255911
8147.906,5.23787472317
8149.834,5.22914113744
8151.763,5.41410304807
8153.692,5.3981071189
8155.62,5.41994556298
8157.549,5.42812370547
8159.477,5.17982270292
8161.406,5.17153723018
8163.334,5.20271653051
8165.263,5.09843802321
8167.191,5.13759288937
8169.12,5.24568474495
8171.048,5.41566149619
8172.977,5.38157293035
8174.905,5.51064592044
8176.833,5.78003515801
8178.762,5.85735562335
8180.69,5.54896112035
8182.619,5.30953765289
8184.548,5.27764361394
8186.476,5.14768303576
8188.405,5.00407722632
8190.333,5.03380655744
8192.262,5.34561541218
8194.19,5.51722086324
8196.118,5.28942701451
8198.047,5.3380879134
8199.976,5.31913171848
8201.904,5.45011891788
8203.833,5.68652606526
8205.761,5.89278145245
8207.689,7.72364422962
8209.618,5.5871211141
8211.547,5.34417095651
8213.476,5.0001846209
8215.403,5.10894605001
8217.332,5.27765565184
8219.261,5.49840011762
8221.189,5.71734579087
8223.117,5.46527747811
8225.046,5.30436737638
8226.975,7.79111039027
8228.903,8.14939981438
8230.832,5.19510940702
8232.76,5.2108550674
8234.688,5.34555499297
8236.617,5.11296698308
8238.546,5.00000451191
8240.474,4.85079841578
8242.402,4.83290555305
8244.331,4.68679650442
8246.26,4.6861730149
8248.188,4.71974404308
8250.116,4.93456517464
8252.045,5.32143867565
8253.974,5.21297699935
8255.902,5.02167263354
8257.831,5.10720703344
8259.759,5.58296349117
8261.688,5.34963335876
8263.616,5.35402259633
8265.545,5.49251524034
8267.473,5.20070257207
8269.401,5.19158005201
8271.33,5.30853432638
8273.259,5.40249566728
8275.188,5.69520883453
8277.115,7.43081518613
8279.044,4.80777396322
8280.973,5.23400881248
8282.901,5.47164580098
8284.829,5.29465293183
8286.758,5.50567436112
8288.687,5.16825777639
8290.615,4.88411072108
8292.544,5.12440270899
8294.472,7.2299518576
8296.4,7.10249869972
8298.329,4.83139948357
8300.258,4.68403541531
8302.187,4.95660665484
8304.114,5.18281650938
8306.043,7.21098509506
8307.972,5.03333533352
8309.9,5.13182898836
8311.828,5.27902025307
8313.757,5.62920353234
8315.686,5.58607317387
8317.614,5.42981489207
8319.543,4.97929423008
8321.471,4.9912418882
8323.399,5.30505376621
8325.328,5.27208357608
8327.257,5.06439880356
8329.185,6.79287513669
8331.113,6.69599433024
8333.042,4.85519891016
8334.971,4.75882580888
8336.899,4.58682062615
8338.827,5.02263015171
8340.756,5.30314300286
8342.685,4.95113244443
8344.613,4.833766814
8346.542,5.06293890997
8348.47,6.77574980473
8350.398,4.84388126591
8352.327,5.33639801329
8354.256,4.94989088704
8356.184,4.73978341895
8358.112,4.67599148158
8360.041,4.77665999835
8361.97,5.26576225614
8363.898,4.77014786396
8365.826,4.61354613455
8367.755,7.18627138564
8369.684,4.83733816381
8371.612,4.48695534032
8373.54,4.88813477849
8375.469,4.78075936153
8377.397,4.88411030756
8379.326,9.43335766336
8381.255,7.49843733402
8383.183,6.53244871029
8385.111,4.33429253007
8387.04,4.67891581743
8388.969,5.22252815122
8390.897,5.64956365842
8392.825,7.59059285261
8394.754,5.19659438722
8396.683,5.04547798719
8398.611,5.45696857282
8400.539,7.57123655845
8402.468,7.9022566553
8404.396,6.90047991693
8406.325,5.24631310477
8408.254,7.19508579069
8410.182,7.13860457808
8412.11,6.94914926992
8414.039,6.66549236834
8415.968,6.78088314051
8417.896,7.49089660274
8419.824,7.91599497349
8421.753,5.13046388172
8423.682,4.97825419259
8425.61,5.84549314943
8427.538,7.26361799436
8429.467,9.37978782978
8431.396,7.57475525394
8433.324,7.04007182305
8435.253,7.29474849986
8437.181,7.44471900242
8439.109,9.22499739026
8441.038,11.3101200206
8442.967,9.26657458442
8444.895,7.23443450374
8446.823,4.77139490733
8448.752,4.48977275944
8450.681,4.71879419792
8452.609,8.89869657609
8454.537,6.76578081839
8456.466,6.82386201446
8458.395,5.101195115
8460.323,5.43524646444
8462.251,7.32954192588
8464.18,4.97060043373
8466.108,4.94163266038
8468.037,5.05604298724
8469.966,6.94343292319
8471.894,9.2551521829
8473.822,5.07740804793
8475.751,4.82251367817
8477.68,4.72626986942
8479.608,4.55264581936
8481.536,7.44331764425
8483.465,7.593899966
8485.394,6.89664175772
8487.322,9.19652785716
8489.25,7.09017579923
8491.179,6.75700937302
8493.107,7.50631031583
8495.036,7.71571879106
8496.965,9.70942315503
8498.893,5.76924148388
8500.821,5.40502785257
